# All units in Hartree [AU] if not specified
# Convergence: Err(φ)=4.014e-11, Err(n_e)=9.842e-11, Err(IET)=9.615e-13, Q_net=6.530e-07
# {"name":"Ar", "Z":18, "Zstar":0.33751376246282305, "A":39.948,  "μ[AU]": 1.7907424042e-03, "Te[AU]": 2.097e-03, "Ti[AU]": 2.097e-03, "rs[AU]": 1.372e+01 }
   r[AU]           n[AU]           nf[AU]          nb[AU]          n_ion[AU]       φtot[AU]        δVxc/δρ[Au]     U_ei[AU]        U_ii[AU]        g_ii            
   1.000000e-04    7.290095e+06    2.088378e+00    7.290093e+06    0.000000e+00    1.799172e+05    0.000000e+00   -7.876954e+00    4.687530e+00   -3.107019e-22
   1.005935e-04    7.225646e+06    4.164395e+00    7.225642e+06    0.000000e+00    1.788552e+05    0.000000e+00   -1.244526e+01    4.687515e+00   -3.106970e-22
   1.011905e-04    7.161766e+06    5.392664e+00    7.161761e+06    0.000000e+00    1.777995e+05    0.000000e+00   -1.477413e+01    4.687501e+00   -3.106920e-22
   1.017911e-04    7.098450e+06    5.793187e+00    7.098444e+06    0.000000e+00    1.767500e+05    0.000000e+00   -1.549443e+01    4.687486e+00   -3.106871e-22
   1.023952e-04    7.035693e+06    5.397633e+00    7.035687e+06    0.000000e+00    1.757067e+05    0.000000e+00   -1.478308e+01    4.687471e+00   -3.106820e-22
   1.030029e-04    6.973489e+06    4.232346e+00    6.973485e+06    0.000000e+00    1.746696e+05    0.000000e+00   -1.257934e+01    4.687456e+00   -3.106770e-22
   1.036142e-04    6.911835e+06    2.296171e+00    6.911832e+06    0.000000e+00    1.736385e+05    0.000000e+00   -8.387369e+00    4.687441e+00   -3.106719e-22
   1.042292e-04    6.850726e+06    1.631989e+00    6.850725e+06    0.000000e+00    1.726136e+05    0.000000e+00   -6.691682e+00    4.687425e+00   -3.106668e-22
   1.048478e-04    6.790161e+06    3.699260e+00    6.790157e+06    0.000000e+00    1.715947e+05    0.000000e+00   -1.150459e+01    4.687410e+00   -3.106616e-22
   1.054700e-04    6.730130e+06    4.959270e+00    6.730125e+06    0.000000e+00    1.705818e+05    0.000000e+00   -1.397505e+01    4.687395e+00   -3.106565e-22
   1.060960e-04    6.670629e+06    5.438365e+00    6.670623e+06    0.000000e+00    1.695749e+05    0.000000e+00   -1.485745e+01    4.687379e+00   -3.106513e-22
   1.067257e-04    6.611653e+06    5.161843e+00    6.611647e+06    0.000000e+00    1.685739e+05    0.000000e+00   -1.435171e+01    4.687364e+00   -3.106460e-22
   1.073591e-04    6.553197e+06    4.161810e+00    6.553193e+06    0.000000e+00    1.675789e+05    0.000000e+00   -1.244014e+01    4.687348e+00   -3.106408e-22
   1.079962e-04    6.495257e+06    2.450732e+00    6.495255e+06    0.000000e+00    1.665897e+05    0.000000e+00   -8.757063e+00    4.687332e+00   -3.106355e-22
   1.086372e-04    6.437830e+06    1.212540e+00    6.437829e+06    0.000000e+00    1.656063e+05    0.000000e+00   -5.499524e+00    4.687316e+00   -3.106301e-22
   1.092819e-04    6.380914e+06    3.242759e+00    6.380911e+06    0.000000e+00    1.646288e+05    0.000000e+00   -1.054259e+01    4.687300e+00   -3.106248e-22
   1.099305e-04    6.324500e+06    4.532158e+00    6.324495e+06    0.000000e+00    1.636570e+05    0.000000e+00   -1.316419e+01    4.687284e+00   -3.106194e-22
   1.105830e-04    6.268584e+06    5.088296e+00    6.268579e+06    0.000000e+00    1.626910e+05    0.000000e+00   -1.421503e+01    4.687268e+00   -3.106140e-22
   1.112393e-04    6.213161e+06    4.929234e+00    6.213156e+06    0.000000e+00    1.617306e+05    0.000000e+00   -1.391838e+01    4.687252e+00   -3.106085e-22
   1.118995e-04    6.158228e+06    4.080115e+00    6.158224e+06    0.000000e+00    1.607759e+05    0.000000e+00   -1.227703e+01    4.687236e+00   -3.106030e-22
   1.125636e-04    6.103779e+06    2.559827e+00    6.103777e+06    0.000000e+00    1.598269e+05    0.000000e+00   -9.012909e+00    4.687219e+00   -3.105975e-22
   1.132316e-04    6.049812e+06    8.476055e-01    6.049811e+06    0.000000e+00    1.588834e+05    0.000000e+00   -4.344212e+00    4.687203e+00   -3.105919e-22
   1.139037e-04    5.996325e+06    2.834356e+00    5.996322e+06    0.000000e+00    1.579455e+05    0.000000e+00   -9.642584e+00    4.687186e+00   -3.105863e-22
   1.145797e-04    5.943310e+06    4.133455e+00    5.943306e+06    0.000000e+00    1.570132e+05    0.000000e+00   -1.238383e+01    4.687170e+00   -3.105807e-22
   1.152597e-04    5.890763e+06    4.750412e+00    5.890758e+06    0.000000e+00    1.560863e+05    0.000000e+00   -1.358135e+01    4.687153e+00   -3.105751e-22
   1.159437e-04    5.838680e+06    4.688149e+00    5.838675e+06    0.000000e+00    1.551649e+05    0.000000e+00   -1.346328e+01    4.687136e+00   -3.105694e-22
   1.166319e-04    5.787057e+06    3.972350e+00    5.787053e+06    0.000000e+00    1.542490e+05    0.000000e+00   -1.206108e+01    4.687119e+00   -3.105637e-22
   1.173241e-04    5.735889e+06    2.626566e+00    5.735886e+06    0.000000e+00    1.533384e+05    0.000000e+00   -9.168154e+00    4.687102e+00   -3.105579e-22
   1.180204e-04    5.685172e+06    6.749830e-01    5.685172e+06    0.000000e+00    1.524333e+05    0.000000e+00   -3.740379e+00    4.687084e+00   -3.105521e-22
   1.187208e-04    5.634908e+06    2.462465e+00    5.634906e+06    0.000000e+00    1.515334e+05    0.000000e+00   -8.784714e+00    4.687067e+00   -3.105463e-22
   1.194254e-04    5.585088e+06    3.758273e+00    5.585084e+06    0.000000e+00    1.506389e+05    0.000000e+00   -1.162618e+01    4.687050e+00   -3.105404e-22
   1.201342e-04    5.535707e+06    4.420517e+00    5.535703e+06    0.000000e+00    1.497497e+05    0.000000e+00   -1.294813e+01    4.687032e+00   -3.105346e-22
   1.208472e-04    5.486762e+06    4.446850e+00    5.486758e+06    0.000000e+00    1.488657e+05    0.000000e+00   -1.299912e+01    4.687015e+00   -3.105286e-22
   1.215644e-04    5.438249e+06    3.859506e+00    5.438245e+06    0.000000e+00    1.479869e+05    0.000000e+00   -1.183280e+01    4.686997e+00   -3.105227e-22
   1.222859e-04    5.390164e+06    2.675348e+00    5.390162e+06    0.000000e+00    1.471133e+05    0.000000e+00   -9.280780e+00    4.686979e+00   -3.105167e-22
   1.230117e-04    5.342504e+06    9.099341e-01    5.342503e+06    0.000000e+00    1.462448e+05    0.000000e+00   -4.551783e+00    4.686961e+00   -3.105106e-22
   1.237417e-04    5.295268e+06    2.109385e+00    5.295266e+06    0.000000e+00    1.453815e+05    0.000000e+00   -7.929186e+00    4.686943e+00   -3.105046e-22
   1.244761e-04    5.248449e+06    3.411757e+00    5.248446e+06    0.000000e+00    1.445233e+05    0.000000e+00   -1.090360e+01    4.686925e+00   -3.104985e-22
   1.252149e-04    5.202044e+06    4.102957e+00    5.202040e+06    0.000000e+00    1.436701e+05    0.000000e+00   -1.232283e+01    4.686907e+00   -3.104923e-22
   1.259580e-04    5.156048e+06    4.210230e+00    5.156044e+06    0.000000e+00    1.428220e+05    0.000000e+00   -1.253542e+01    4.686888e+00   -3.104861e-22
   1.267056e-04    5.110458e+06    3.736452e+00    5.110455e+06    0.000000e+00    1.419789e+05    0.000000e+00   -1.158110e+01    4.686870e+00   -3.104799e-22
   1.274576e-04    5.065271e+06    2.680207e+00    5.065268e+06    0.000000e+00    1.411407e+05    0.000000e+00   -9.291958e+00    4.686851e+00   -3.104737e-22
   1.282140e-04    5.020482e+06    1.086137e+00    5.020481e+06    0.000000e+00    1.403075e+05    0.000000e+00   -5.114693e+00    4.686832e+00   -3.104674e-22
   1.289750e-04    4.976092e+06    1.786680e+00    4.976090e+06    0.000000e+00    1.394792e+05    0.000000e+00   -7.104504e+00    4.686814e+00   -3.104611e-22
   1.297404e-04    4.932094e+06    3.088208e+00    4.932091e+06    0.000000e+00    1.386558e+05    0.000000e+00   -1.020625e+01    4.686795e+00   -3.104547e-22
   1.305104e-04    4.888485e+06    3.810899e+00    4.888481e+06    0.000000e+00    1.378373e+05    0.000000e+00   -1.173380e+01    4.686776e+00   -3.104483e-22
   1.312850e-04    4.845261e+06    3.974609e+00    4.845257e+06    0.000000e+00    1.370236e+05    0.000000e+00   -1.206566e+01    4.686757e+00   -3.104419e-22
   1.320642e-04    4.802418e+06    3.592538e+00    4.802415e+06    0.000000e+00    1.362146e+05    0.000000e+00   -1.128326e+01    4.686737e+00   -3.104354e-22
   1.328480e-04    4.759954e+06    2.681882e+00    4.759951e+06    0.000000e+00    1.354105e+05    0.000000e+00   -9.295807e+00    4.686718e+00   -3.104289e-22
   1.336364e-04    4.717864e+06    1.237882e+00    4.717862e+06    0.000000e+00    1.346111e+05    0.000000e+00   -5.575319e+00    4.686698e+00   -3.104223e-22
   1.344295e-04    4.676147e+06    1.485174e+00    4.676146e+06    0.000000e+00    1.338164e+05    0.000000e+00   -6.287619e+00    4.686679e+00   -3.104157e-22
   1.352274e-04    4.634801e+06    2.783154e+00    4.634798e+06    0.000000e+00    1.330264e+05    0.000000e+00   -9.526863e+00    4.686659e+00   -3.104091e-22
   1.360299e-04    4.593820e+06    3.521692e+00    4.593816e+06    0.000000e+00    1.322411e+05    0.000000e+00   -1.113537e+01    4.686639e+00   -3.104024e-22
   1.368372e-04    4.553200e+06    3.737611e+00    4.553196e+06    0.000000e+00    1.314604e+05    0.000000e+00   -1.158350e+01    4.686619e+00   -3.103957e-22
   1.376494e-04    4.512939e+06    3.445635e+00    4.512935e+06    0.000000e+00    1.306843e+05    0.000000e+00   -1.097546e+01    4.686599e+00   -3.103890e-22
   1.384663e-04    4.473033e+06    2.654141e+00    4.473030e+06    0.000000e+00    1.299128e+05    0.000000e+00   -9.231748e+00    4.686579e+00   -3.103822e-22
   1.392881e-04    4.433479e+06    1.356178e+00    4.433478e+06    0.000000e+00    1.291458e+05    0.000000e+00   -5.921463e+00    4.686559e+00   -3.103754e-22
   1.401148e-04    4.394276e+06    1.214965e+00    4.394275e+06    0.000000e+00    1.283834e+05    0.000000e+00   -5.506779e+00    4.686538e+00   -3.103685e-22
   1.409463e-04    4.355421e+06    2.492352e+00    4.355418e+06    0.000000e+00    1.276254e+05    0.000000e+00   -8.855023e+00    4.686518e+00   -3.103616e-22
   1.417828e-04    4.316909e+06    3.255402e+00    4.316906e+06    0.000000e+00    1.268720e+05    0.000000e+00   -1.056974e+01    4.686497e+00   -3.103546e-22
   1.426243e-04    4.278737e+06    3.519395e+00    4.278733e+06    0.000000e+00    1.261230e+05    0.000000e+00   -1.113052e+01    4.686476e+00   -3.103476e-22
   1.434708e-04    4.240901e+06    3.296174e+00    4.240898e+06    0.000000e+00    1.253784e+05    0.000000e+00   -1.065708e+01    4.686455e+00   -3.103406e-22
   1.443223e-04    4.203400e+06    2.601482e+00    4.203397e+06    0.000000e+00    1.246381e+05    0.000000e+00   -9.110247e+00    4.686434e+00   -3.103335e-22
   1.451788e-04    4.166230e+06    1.449640e+00    4.166228e+06    0.000000e+00    1.239023e+05    0.000000e+00   -6.187796e+00    4.686413e+00   -3.103264e-22
   1.460404e-04    4.129388e+06    9.704289e-01    4.129388e+06    0.000000e+00    1.231708e+05    0.000000e+00   -4.748772e+00    4.686392e+00   -3.103193e-22
   1.469072e-04    4.092875e+06    2.227161e+00    4.092872e+06    0.000000e+00    1.224436e+05    0.000000e+00   -8.219633e+00    4.686370e+00   -3.103120e-22
   1.477791e-04    4.056683e+06    3.003657e+00    4.056680e+06    0.000000e+00    1.217207e+05    0.000000e+00   -1.002037e+01    4.686349e+00   -3.103048e-22
   1.486561e-04    4.020811e+06    3.301913e+00    4.020808e+06    0.000000e+00    1.210021e+05    0.000000e+00   -1.066947e+01    4.686327e+00   -3.102975e-22
   1.495384e-04    3.985256e+06    3.141943e+00    3.985253e+06    0.000000e+00    1.202877e+05    0.000000e+00   -1.032415e+01    4.686305e+00   -3.102902e-22
   1.504259e-04    3.950014e+06    2.543144e+00    3.950011e+06    0.000000e+00    1.195775e+05    0.000000e+00   -8.974263e+00    4.686283e+00   -3.102828e-22
   1.513187e-04    3.915083e+06    1.512934e+00    3.915082e+06    0.000000e+00    1.188715e+05    0.000000e+00   -6.364771e+00    4.686261e+00   -3.102754e-22
   1.522167e-04    3.880462e+06    7.588168e-01    3.880461e+06    0.000000e+00    1.181697e+05    0.000000e+00   -4.039262e+00    4.686239e+00   -3.102679e-22
   1.531201e-04    3.846148e+06    1.983778e+00    3.846146e+06    0.000000e+00    1.174720e+05    0.000000e+00   -7.613508e+00    4.686217e+00   -3.102604e-22
   1.540289e-04    3.812138e+06    2.753531e+00    3.812135e+06    0.000000e+00    1.167785e+05    0.000000e+00   -9.459554e+00    4.686194e+00   -3.102529e-22
   1.549430e-04    3.778427e+06    3.090720e+00    3.778424e+06    0.000000e+00    1.160890e+05    0.000000e+00   -1.021181e+01    4.686172e+00   -3.102453e-22
   1.558626e-04    3.745014e+06    2.997413e+00    3.745011e+06    0.000000e+00    1.154036e+05    0.000000e+00   -1.000644e+01    4.686149e+00   -3.102376e-22
   1.567877e-04    3.711896e+06    2.475939e+00    3.711893e+06    0.000000e+00    1.147223e+05    0.000000e+00   -8.816303e+00    4.686126e+00   -3.102300e-22
   1.577182e-04    3.679070e+06    1.554691e+00    3.679069e+06    0.000000e+00    1.140449e+05    0.000000e+00   -6.480238e+00    4.686103e+00   -3.102222e-22
   1.586542e-04    3.646535e+06    5.586113e-01    3.646534e+06    0.000000e+00    1.133716e+05    0.000000e+00   -3.303894e+00    4.686080e+00   -3.102145e-22
   1.595958e-04    3.614289e+06    1.752474e+00    3.614287e+06    0.000000e+00    1.127022e+05    0.000000e+00   -7.014147e+00    4.686057e+00   -3.102066e-22
   1.605430e-04    3.582327e+06    2.529274e+00    3.582325e+06    0.000000e+00    1.120368e+05    0.000000e+00   -8.941940e+00    4.686033e+00   -3.101988e-22
   1.614958e-04    3.550648e+06    2.892545e+00    3.550645e+06    0.000000e+00    1.113753e+05    0.000000e+00   -9.773089e+00    4.686010e+00   -3.101908e-22
   1.624543e-04    3.519248e+06    2.845431e+00    3.519246e+06    0.000000e+00    1.107177e+05    0.000000e+00   -9.667627e+00    4.685986e+00   -3.101829e-22
   1.634185e-04    3.488126e+06    2.407741e+00    3.488124e+06    0.000000e+00    1.100640e+05    0.000000e+00   -8.654607e+00    4.685962e+00   -3.101749e-22
   1.643883e-04    3.457278e+06    1.572487e+00    3.457277e+06    0.000000e+00    1.094141e+05    0.000000e+00   -6.529402e+00    4.685938e+00   -3.101668e-22
   1.653640e-04    3.426703e+06    3.793183e-01    3.426702e+06    0.000000e+00    1.087681e+05    0.000000e+00   -2.565735e+00    4.685914e+00   -3.101587e-22
   1.663454e-04    3.396400e+06    1.553270e+00    3.396398e+06    0.000000e+00    1.081259e+05    0.000000e+00   -6.476361e+00    4.685890e+00   -3.101506e-22
   1.673327e-04    3.366365e+06    2.319265e+00    3.366362e+06    0.000000e+00    1.074875e+05    0.000000e+00   -8.442951e+00    4.685865e+00   -3.101424e-22
   1.683258e-04    3.336594e+06    2.699000e+00    3.336592e+06    0.000000e+00    1.068528e+05    0.000000e+00   -9.335006e+00    4.685841e+00   -3.101341e-22
   1.693248e-04    3.307087e+06    2.697552e+00    3.307084e+06    0.000000e+00    1.062219e+05    0.000000e+00   -9.331699e+00    4.685816e+00   -3.101258e-22
   1.703297e-04    3.277840e+06    2.321112e+00    3.277837e+06    0.000000e+00    1.055947e+05    0.000000e+00   -8.447372e+00    4.685791e+00   -3.101175e-22
   1.713406e-04    3.248851e+06    1.582884e+00    3.248849e+06    0.000000e+00    1.049713e+05    0.000000e+00   -6.557938e+00    4.685766e+00   -3.101091e-22
   1.723575e-04    3.220118e+06    4.905813e-01    3.220117e+06    0.000000e+00    1.043514e+05    0.000000e+00   -3.034730e+00    4.685741e+00   -3.101006e-22
   1.733804e-04    3.191641e+06    1.359135e+00    3.191639e+06    0.000000e+00    1.037353e+05    0.000000e+00   -5.929965e+00    4.685716e+00   -3.100921e-22
   1.744094e-04    3.163415e+06    2.127145e+00    3.163413e+06    0.000000e+00    1.031228e+05    0.000000e+00   -7.973051e+00    4.685690e+00   -3.100836e-22
   1.754445e-04    3.135439e+06    2.516204e+00    3.135436e+06    0.000000e+00    1.025139e+05    0.000000e+00   -8.911317e+00    4.685665e+00   -3.100750e-22
   1.764858e-04    3.107709e+06    2.552877e+00    3.107707e+06    0.000000e+00    1.019086e+05    0.000000e+00   -8.996840e+00    4.685639e+00   -3.100663e-22
   1.775332e-04    3.080225e+06    2.240880e+00    3.080222e+06    0.000000e+00    1.013068e+05    0.000000e+00   -8.253039e+00    4.685613e+00   -3.100576e-22
   1.785869e-04    3.052983e+06    1.580133e+00    3.052981e+06    0.000000e+00    1.007086e+05    0.000000e+00   -6.550406e+00    4.685587e+00   -3.100489e-22
   1.796468e-04    3.025981e+06    5.803179e-01    3.025980e+06    0.000000e+00    1.001140e+05    0.000000e+00   -3.387549e+00    4.685561e+00   -3.100401e-22
   1.807130e-04    2.999220e+06    1.181707e+00    2.999218e+06    0.000000e+00    9.952283e+04    0.000000e+00   -5.406989e+00    4.685535e+00   -3.100312e-22
   1.817855e-04    2.972695e+06    1.939185e+00    2.972693e+06    0.000000e+00    9.893517e+04    0.000000e+00   -7.499680e+00    4.685508e+00   -3.100223e-22
   1.828644e-04    2.946404e+06    2.346133e+00    2.946402e+06    0.000000e+00    9.835098e+04    0.000000e+00   -8.507578e+00    4.685481e+00   -3.100134e-22
   1.839497e-04    2.920346e+06    2.410183e+00    2.920344e+06    0.000000e+00    9.777023e+04    0.000000e+00   -8.660477e+00    4.685455e+00   -3.100044e-22
   1.850414e-04    2.894517e+06    2.147538e+00    2.894515e+06    0.000000e+00    9.719291e+04    0.000000e+00   -8.023889e+00    4.685428e+00   -3.099953e-22
   1.861396e-04    2.868917e+06    1.560858e+00    2.868915e+06    0.000000e+00    9.661899e+04    0.000000e+00   -6.497262e+00    4.685400e+00   -3.099862e-22
   1.872443e-04    2.843542e+06    6.542038e-01    2.843542e+06    0.000000e+00    9.604846e+04    0.000000e+00   -3.664410e+00    4.685373e+00   -3.099770e-22
   1.883556e-04    2.818394e+06    1.025194e+00    2.818393e+06    0.000000e+00    9.548130e+04    0.000000e+00   -4.923726e+00    4.685346e+00   -3.099678e-22
   1.894735e-04    2.793467e+06    1.772113e+00    2.793465e+06    0.000000e+00    9.491748e+04    0.000000e+00   -7.065989e+00    4.685318e+00   -3.099585e-22
   1.905980e-04    2.768761e+06    2.180608e+00    2.768759e+06    0.000000e+00    9.435699e+04    0.000000e+00   -8.105313e+00    4.685290e+00   -3.099492e-22
   1.917292e-04    2.744273e+06    2.276085e+00    2.744271e+06    0.000000e+00    9.379981e+04    0.000000e+00   -8.338572e+00    4.685262e+00   -3.099398e-22
   1.928671e-04    2.720001e+06    2.053084e+00    2.719999e+06    0.000000e+00    9.324591e+04    0.000000e+00   -7.788355e+00    4.685234e+00   -3.099303e-22
   1.940117e-04    2.695943e+06    1.530837e+00    2.695941e+06    0.000000e+00    9.269529e+04    0.000000e+00   -6.414664e+00    4.685206e+00   -3.099208e-22
   1.951632e-04    2.672098e+06    7.146209e-01    2.672097e+06    0.000000e+00    9.214791e+04    0.000000e+00   -3.883083e+00    4.685177e+00   -3.099112e-22
   1.963215e-04    2.648464e+06    8.833917e-01    2.648463e+06    0.000000e+00    9.160376e+04    0.000000e+00   -4.463941e+00    4.685149e+00   -3.099016e-22
   1.974866e-04    2.625040e+06    1.611891e+00    2.625038e+06    0.000000e+00    9.106282e+04    0.000000e+00   -6.636901e+00    4.685120e+00   -3.098920e-22
   1.986587e-04    2.601822e+06    2.027995e+00    2.601820e+06    0.000000e+00    9.052507e+04    0.000000e+00   -7.725505e+00    4.685091e+00   -3.098822e-22
   1.998377e-04    2.578810e+06    2.144546e+00    2.578808e+06    0.000000e+00    8.999049e+04    0.000000e+00   -8.016461e+00    4.685062e+00   -3.098724e-22
   2.010238e-04    2.556000e+06    1.964356e+00    2.555998e+06    0.000000e+00    8.945907e+04    0.000000e+00   -7.564250e+00    4.685033e+00   -3.098626e-22
   2.022168e-04    2.533392e+06    1.498222e+00    2.533391e+06    0.000000e+00    8.893079e+04    0.000000e+00   -6.323957e+00    4.685003e+00   -3.098527e-22
   2.034170e-04    2.510984e+06    7.556362e-01    2.510983e+06    0.000000e+00    8.840562e+04    0.000000e+00   -4.028207e+00    4.684973e+00   -3.098427e-22
   2.046242e-04    2.488774e+06    7.621706e-01    2.488773e+06    0.000000e+00    8.788355e+04    0.000000e+00   -4.050950e+00    4.684944e+00   -3.098327e-22
