# All units in Hartree [AU] if not specified
# Convergence: Err(φ)=3.834e-11, Err(n_e)=8.397e-11, Err(IET)=1.663e+00, Q_net=5.990e-07
# {"name":"Ar", "Z":18, "Zstar":0.3738454933685844, "A":39.948,  "μ[AU]": -1.7336224847e-03, "Te[AU]": 4.561e-03, "Ti[AU]": 4.561e-03, "rs[AU]": 1.372e+01 }
   r[AU]           n[AU]           nf[AU]          nb[AU]          n_ion[AU]       φtot[AU]        δVxc/δρ[Au]     U_ei[AU]        U_ii[AU]        g_ii            
   1.000000e-04    7.290094e+06    8.885225e-01    7.290093e+06    0.000000e+00    1.799172e+05    0.000000e+00   -4.485893e+00    5.829013e+00    7.689626e-24
   1.005935e-04    7.225646e+06    3.426305e+00    7.225642e+06    0.000000e+00    1.788552e+05    0.000000e+00   -1.093906e+01    5.828994e+00    7.689504e-24
   1.011905e-04    7.161766e+06    5.095104e+00    7.161761e+06    0.000000e+00    1.777995e+05    0.000000e+00   -1.423300e+01    5.828975e+00    7.689381e-24
   1.017911e-04    7.098450e+06    5.152983e+00    7.098445e+06    0.000000e+00    1.767500e+05    0.000000e+00   -1.433944e+01    5.828957e+00    7.689257e-24
   1.023952e-04    7.035691e+06    3.675684e+00    7.035688e+06    0.000000e+00    1.757067e+05    0.000000e+00   -1.146068e+01    5.828938e+00    7.689133e-24
   1.030029e-04    6.973486e+06    6.701078e-01    6.973485e+06    0.000000e+00    1.746696e+05    0.000000e+00   -3.727552e+00    5.828919e+00    7.689008e-24
   1.036142e-04    6.911836e+06    3.379774e+00    6.911833e+06    0.000000e+00    1.736385e+05    0.000000e+00   -1.084072e+01    5.828900e+00    7.688882e-24
   1.042292e-04    6.850730e+06    4.914287e+00    6.850725e+06    0.000000e+00    1.726136e+05    0.000000e+00   -1.389580e+01    5.828880e+00    7.688756e-24
   1.048478e-04    6.790162e+06    4.893750e+00    6.790157e+06    0.000000e+00    1.715947e+05    0.000000e+00   -1.385717e+01    5.828861e+00    7.688628e-24
   1.054700e-04    6.730128e+06    3.406926e+00    6.730125e+06    0.000000e+00    1.705818e+05    0.000000e+00   -1.089827e+01    5.828842e+00    7.688500e-24
   1.060960e-04    6.670624e+06    4.720187e-01    6.670623e+06    0.000000e+00    1.695749e+05    0.000000e+00   -2.964020e+00    5.828822e+00    7.688371e-24
   1.067257e-04    6.611651e+06    3.334996e+00    6.611648e+06    0.000000e+00    1.685740e+05    0.000000e+00   -1.074480e+01    5.828803e+00    7.688242e-24
   1.073591e-04    6.553198e+06    4.737090e+00    6.553193e+06    0.000000e+00    1.675789e+05    0.000000e+00   -1.356114e+01    5.828783e+00    7.688112e-24
   1.079962e-04    6.495260e+06    4.643047e+00    6.495255e+06    0.000000e+00    1.665897e+05    0.000000e+00   -1.338193e+01    5.828763e+00    7.687980e-24
   1.086372e-04    6.437832e+06    3.143884e+00    6.437829e+06    0.000000e+00    1.656063e+05    0.000000e+00   -1.033291e+01    5.828743e+00    7.687849e-24
   1.092819e-04    6.380912e+06    6.156151e-01    6.380911e+06    0.000000e+00    1.646288e+05    0.000000e+00   -3.526047e+00    5.828723e+00    7.687716e-24
   1.099305e-04    6.324499e+06    3.285507e+00    6.324496e+06    0.000000e+00    1.636570e+05    0.000000e+00   -1.063937e+01    5.828702e+00    7.687582e-24
   1.105830e-04    6.268584e+06    4.559493e+00    6.268579e+06    0.000000e+00    1.626910e+05    0.000000e+00   -1.322122e+01    5.828682e+00    7.687448e-24
   1.112393e-04    6.213161e+06    4.404457e+00    6.213157e+06    0.000000e+00    1.617306e+05    0.000000e+00   -1.292113e+01    5.828662e+00    7.687313e-24
   1.118995e-04    6.158227e+06    2.899171e+00    6.158224e+06    0.000000e+00    1.607759e+05    0.000000e+00   -9.793100e+00    5.828641e+00    7.687177e-24
   1.125636e-04    6.103778e+06    7.476933e-01    6.103777e+06    0.000000e+00    1.598269e+05    0.000000e+00   -4.005037e+00    5.828620e+00    7.687041e-24
   1.132316e-04    6.049814e+06    3.234131e+00    6.049811e+06    0.000000e+00    1.588834e+05    0.000000e+00   -1.052835e+01    5.828599e+00    7.686903e-24
   1.139037e-04    5.996327e+06    4.380472e+00    5.996322e+06    0.000000e+00    1.579455e+05    0.000000e+00   -1.287477e+01    5.828578e+00    7.686765e-24
   1.145797e-04    5.943310e+06    4.173747e+00    5.943306e+06    0.000000e+00    1.570132e+05    0.000000e+00   -1.246848e+01    5.828557e+00    7.686626e-24
   1.152597e-04    5.890761e+06    2.664901e+00    5.890759e+06    0.000000e+00    1.560863e+05    0.000000e+00   -9.261403e+00    5.828536e+00    7.686486e-24
   1.159437e-04    5.838676e+06    8.667038e-01    5.838676e+06    0.000000e+00    1.551649e+05    0.000000e+00   -4.413140e+00    5.828515e+00    7.686345e-24
   1.166319e-04    5.787056e+06    3.178999e+00    5.787053e+06    0.000000e+00    1.542490e+05    0.000000e+00   -1.040955e+01    5.828493e+00    7.686204e-24
   1.173241e-04    5.735890e+06    4.205676e+00    5.735886e+06    0.000000e+00    1.533384e+05    0.000000e+00   -1.253186e+01    5.828471e+00    7.686061e-24
   1.180204e-04    5.685176e+06    3.952667e+00    5.685172e+06    0.000000e+00    1.524333e+05    0.000000e+00   -1.202662e+01    5.828450e+00    7.685918e-24
   1.187208e-04    5.634908e+06    2.440391e+00    5.634906e+06    0.000000e+00    1.515334e+05    0.000000e+00   -8.736973e+00    5.828428e+00    7.685774e-24
   1.194254e-04    5.585085e+06    9.730225e-01    5.585084e+06    0.000000e+00    1.506389e+05    0.000000e+00   -4.762048e+00    5.828406e+00    7.685629e-24
   1.201342e-04    5.535706e+06    3.126569e+00    5.535703e+06    0.000000e+00    1.497497e+05    0.000000e+00   -1.029502e+01    5.828384e+00    7.685483e-24
   1.208472e-04    5.486762e+06    4.035896e+00    5.486758e+06    0.000000e+00    1.488657e+05    0.000000e+00   -1.219367e+01    5.828361e+00    7.685336e-24
   1.215644e-04    5.438249e+06    3.734200e+00    5.438245e+06    0.000000e+00    1.479869e+05    0.000000e+00   -1.158157e+01    5.828339e+00    7.685189e-24
   1.222859e-04    5.390164e+06    2.225183e+00    5.390162e+06    0.000000e+00    1.471133e+05    0.000000e+00   -8.219228e+00    5.828316e+00    7.685040e-24
   1.230117e-04    5.342504e+06    1.060257e+00    5.342503e+06    0.000000e+00    1.462448e+05    0.000000e+00   -5.038781e+00    5.828294e+00    7.684891e-24
   1.237417e-04    5.295269e+06    3.070667e+00    5.295266e+06    0.000000e+00    1.453815e+05    0.000000e+00   -1.017310e+01    5.828271e+00    7.684741e-24
   1.244761e-04    5.248450e+06    3.873156e+00    5.248446e+06    0.000000e+00    1.445233e+05    0.000000e+00   -1.186536e+01    5.828248e+00    7.684590e-24
   1.252149e-04    5.202044e+06    3.527943e+00    5.202040e+06    0.000000e+00    1.436701e+05    0.000000e+00   -1.115320e+01    5.828225e+00    7.684438e-24
   1.259580e-04    5.156046e+06    2.020220e+00    5.156044e+06    0.000000e+00    1.428220e+05    0.000000e+00   -7.710441e+00    5.828202e+00    7.684285e-24
   1.267056e-04    5.110456e+06    1.137332e+00    5.110455e+06    0.000000e+00    1.419789e+05    0.000000e+00   -5.277198e+00    5.828178e+00    7.684131e-24
   1.274576e-04    5.065272e+06    3.008058e+00    5.065268e+06    0.000000e+00    1.411407e+05    0.000000e+00   -1.003514e+01    5.828155e+00    7.683977e-24
   1.282140e-04    5.020485e+06    3.710491e+00    5.020481e+06    0.000000e+00    1.403075e+05    0.000000e+00   -1.153281e+01    5.828131e+00    7.683821e-24
   1.289750e-04    4.976094e+06    3.321716e+00    4.976090e+06    0.000000e+00    1.394792e+05    0.000000e+00   -1.071658e+01    5.828107e+00    7.683664e-24
   1.297404e-04    4.932093e+06    1.822618e+00    4.932092e+06    0.000000e+00    1.386558e+05    0.000000e+00   -7.203499e+00    5.828084e+00    7.683507e-24
   1.305104e-04    4.888483e+06    1.210652e+00    4.888482e+06    0.000000e+00    1.378373e+05    0.000000e+00   -5.498957e+00    5.828060e+00    7.683349e-24
   1.312850e-04    4.845260e+06    2.943116e+00    4.845257e+06    0.000000e+00    1.370236e+05    0.000000e+00   -9.890668e+00    5.828035e+00    7.683189e-24
   1.320642e-04    4.802418e+06    3.554792e+00    4.802415e+06    0.000000e+00    1.362146e+05    0.000000e+00   -1.120924e+01    5.828011e+00    7.683029e-24
   1.328480e-04    4.759954e+06    3.115725e+00    4.759951e+06    0.000000e+00    1.354105e+05    0.000000e+00   -1.027154e+01    5.827987e+00    7.682868e-24
   1.336364e-04    4.717864e+06    1.639448e+00    4.717863e+06    0.000000e+00    1.346111e+05    0.000000e+00   -6.716584e+00    5.827962e+00    7.682706e-24
   1.344295e-04    4.676147e+06    1.274246e+00    4.676146e+06    0.000000e+00    1.338164e+05    0.000000e+00   -5.687510e+00    5.827937e+00    7.682543e-24
   1.352274e-04    4.634801e+06    2.874578e+00    4.634798e+06    0.000000e+00    1.330264e+05    0.000000e+00   -9.737869e+00    5.827912e+00    7.682378e-24
   1.360299e-04    4.593820e+06    3.405877e+00    4.593816e+06    0.000000e+00    1.322411e+05    0.000000e+00   -1.089605e+01    5.827887e+00    7.682213e-24
   1.368372e-04    4.553199e+06    2.930568e+00    4.553196e+06    0.000000e+00    1.314604e+05    0.000000e+00   -9.862935e+00    5.827862e+00    7.682047e-24
   1.376494e-04    4.512937e+06    1.458768e+00    4.512935e+06    0.000000e+00    1.306843e+05    0.000000e+00   -6.218384e+00    5.827837e+00    7.681880e-24
   1.384663e-04    4.473031e+06    1.329360e+00    4.473030e+06    0.000000e+00    1.299128e+05    0.000000e+00   -5.848739e+00    5.827811e+00    7.681712e-24
   1.392881e-04    4.433481e+06    2.799662e+00    4.433478e+06    0.000000e+00    1.291458e+05    0.000000e+00   -9.569140e+00    5.827785e+00    7.681543e-24
   1.401148e-04    4.394278e+06    3.259980e+00    4.394275e+06    0.000000e+00    1.283834e+05    0.000000e+00   -1.058443e+01    5.827760e+00    7.681373e-24
   1.409463e-04    4.355421e+06    2.745484e+00    4.355419e+06    0.000000e+00    1.276254e+05    0.000000e+00   -9.445965e+00    5.827734e+00    7.681202e-24
   1.417828e-04    4.316907e+06    1.283723e+00    4.316906e+06    0.000000e+00    1.268720e+05    0.000000e+00   -5.715524e+00    5.827707e+00    7.681030e-24
   1.426243e-04    4.278735e+06    1.376121e+00    4.278733e+06    0.000000e+00    1.261230e+05    0.000000e+00   -5.983633e+00    5.827681e+00    7.680857e-24
   1.434708e-04    4.240901e+06    2.723933e+00    4.240898e+06    0.000000e+00    1.253784e+05    0.000000e+00   -9.396949e+00    5.827655e+00    7.680683e-24
   1.443223e-04    4.203401e+06    3.117118e+00    4.203398e+06    0.000000e+00    1.246381e+05    0.000000e+00   -1.027456e+01    5.827628e+00    7.680508e-24
   1.451788e-04    4.166231e+06    2.568583e+00    4.166228e+06    0.000000e+00    1.239023e+05    0.000000e+00   -9.038562e+00    5.827601e+00    7.680332e-24
   1.460404e-04    4.129389e+06    1.112038e+00    4.129388e+06    0.000000e+00    1.231708e+05    0.000000e+00   -5.199543e+00    5.827574e+00    7.680155e-24
   1.469072e-04    4.092874e+06    1.414919e+00    4.092873e+06    0.000000e+00    1.224436e+05    0.000000e+00   -6.094410e+00    5.827547e+00    7.679976e-24
   1.477791e-04    4.056683e+06    2.649414e+00    4.056680e+06    0.000000e+00    1.217207e+05    0.000000e+00   -9.225894e+00    5.827520e+00    7.679797e-24
   1.486561e-04    4.020811e+06    2.974691e+00    4.020808e+06    0.000000e+00    1.210021e+05    0.000000e+00   -9.961304e+00    5.827493e+00    7.679617e-24
   1.495384e-04    3.985255e+06    2.401094e+00    3.985253e+06    0.000000e+00    1.202877e+05    0.000000e+00   -8.644040e+00    5.827465e+00    7.679435e-24
   1.504259e-04    3.950013e+06    9.532799e-01    3.950012e+06    0.000000e+00    1.195775e+05    0.000000e+00   -4.698192e+00    5.827437e+00    7.679253e-24
   1.513187e-04    3.915084e+06    1.451352e+00    3.915082e+06    0.000000e+00    1.188715e+05    0.000000e+00   -6.197450e+00    5.827410e+00    7.679069e-24
   1.522167e-04    3.880464e+06    2.575745e+00    3.880461e+06    0.000000e+00    1.181697e+05    0.000000e+00   -9.055176e+00    5.827381e+00    7.678885e-24
   1.531201e-04    3.846149e+06    2.833259e+00    3.846146e+06    0.000000e+00    1.174721e+05    0.000000e+00   -9.644892e+00    5.827353e+00    7.678699e-24
   1.540289e-04    3.812137e+06    2.230498e+00    3.812135e+06    0.000000e+00    1.167785e+05    0.000000e+00   -8.232330e+00    5.827325e+00    7.678512e-24
   1.549430e-04    3.778425e+06    8.008335e-01    3.778424e+06    0.000000e+00    1.160890e+05    0.000000e+00   -4.189784e+00    5.827296e+00    7.678324e-24
   1.558626e-04    3.745013e+06    1.476571e+00    3.745011e+06    0.000000e+00    1.154036e+05    0.000000e+00   -6.268212e+00    5.827268e+00    7.678135e-24
   1.567877e-04    3.711896e+06    2.499248e+00    3.711894e+06    0.000000e+00    1.147223e+05    0.000000e+00   -8.876214e+00    5.827239e+00    7.677945e-24
   1.577182e-04    3.679072e+06    2.699994e+00    3.679069e+06    0.000000e+00    1.140449e+05    0.000000e+00   -9.342046e+00    5.827210e+00    7.677753e-24
   1.586542e-04    3.646536e+06    2.079222e+00    3.646534e+06    0.000000e+00    1.133716e+05    0.000000e+00   -7.858722e+00    5.827180e+00    7.677561e-24
   1.595958e-04    3.614288e+06    6.547561e-01    3.614287e+06    0.000000e+00    1.127022e+05    0.000000e+00   -3.671334e+00    5.827151e+00    7.677367e-24
   1.605430e-04    3.582326e+06    1.494871e+00    3.582325e+06    0.000000e+00    1.120368e+05    0.000000e+00   -6.319444e+00    5.827121e+00    7.677173e-24
   1.614958e-04    3.550648e+06    2.423932e+00    3.550645e+06    0.000000e+00    1.113753e+05    0.000000e+00   -8.698233e+00    5.827092e+00    7.676977e-24
   1.624543e-04    3.519248e+06    2.561747e+00    3.519246e+06    0.000000e+00    1.107177e+05    0.000000e+00   -9.022659e+00    5.827062e+00    7.676780e-24
   1.634185e-04    3.488126e+06    1.925331e+00    3.488124e+06    0.000000e+00    1.100640e+05    0.000000e+00   -7.469304e+00    5.827032e+00    7.676581e-24
   1.643883e-04    3.457277e+06    5.194696e-01    3.457277e+06    0.000000e+00    1.094141e+05    0.000000e+00   -3.155360e+00    5.827001e+00    7.676382e-24
   1.653640e-04    3.426704e+06    1.507160e+00    3.426703e+06    0.000000e+00    1.087681e+05    0.000000e+00   -6.353779e+00    5.826971e+00    7.676181e-24
   1.663454e-04    3.396401e+06    2.351109e+00    3.396399e+06    0.000000e+00    1.081259e+05    0.000000e+00   -8.524380e+00    5.826940e+00    7.675980e-24
   1.673327e-04    3.366365e+06    2.435122e+00    3.366362e+06    0.000000e+00    1.074875e+05    0.000000e+00   -8.724601e+00    5.826909e+00    7.675777e-24
   1.683258e-04    3.336593e+06    1.774167e+00    3.336592e+06    0.000000e+00    1.068528e+05    0.000000e+00   -7.076313e+00    5.826878e+00    7.675573e-24
   1.693248e-04    3.307085e+06    3.852934e-01    3.307084e+06    0.000000e+00    1.062219e+05    0.000000e+00   -2.596819e+00    5.826847e+00    7.675367e-24
   1.703297e-04    3.277839e+06    1.510302e+00    3.277837e+06    0.000000e+00    1.055947e+05    0.000000e+00   -6.362512e+00    5.826816e+00    7.675161e-24
   1.713406e-04    3.248852e+06    2.274626e+00    3.248849e+06    0.000000e+00    1.049713e+05    0.000000e+00   -8.339922e+00    5.826784e+00    7.674953e-24
   1.723575e-04    3.220120e+06    2.306950e+00    3.220117e+06    0.000000e+00    1.043514e+05    0.000000e+00   -8.418065e+00    5.826752e+00    7.674744e-24
   1.733804e-04    3.191641e+06    1.628828e+00    3.191639e+06    0.000000e+00    1.037353e+05    0.000000e+00   -6.687593e+00    5.826720e+00    7.674534e-24
   1.744094e-04    3.163413e+06    2.615433e-01    3.163413e+06    0.000000e+00    1.031228e+05    0.000000e+00   -2.020032e+00    5.826688e+00    7.674322e-24
   1.754445e-04    3.135438e+06    1.512421e+00    3.135436e+06    0.000000e+00    1.025139e+05    0.000000e+00   -6.368392e+00    5.826656e+00    7.674109e-24
   1.764858e-04    3.107709e+06    2.199718e+00    3.107707e+06    0.000000e+00    1.019086e+05    0.000000e+00   -8.157240e+00    5.826623e+00    7.673895e-24
   1.775332e-04    3.080225e+06    2.183919e+00    3.080223e+06    0.000000e+00    1.013068e+05    0.000000e+00   -8.118464e+00    5.826591e+00    7.673680e-24
   1.785869e-04    3.052983e+06    1.486942e+00    3.052981e+06    0.000000e+00    1.007086e+05    0.000000e+00   -6.297140e+00    5.826558e+00    7.673463e-24
   1.796468e-04    3.025981e+06    2.237026e-01    3.025980e+06    0.000000e+00    1.001140e+05    0.000000e+00   -1.826375e+00    5.826525e+00    7.673246e-24
   1.807130e-04    2.999220e+06    1.508806e+00    2.999219e+06    0.000000e+00    9.952284e+04    0.000000e+00   -6.358356e+00    5.826491e+00    7.673026e-24
   1.817855e-04    2.972695e+06    2.122768e+00    2.972693e+06    0.000000e+00    9.893517e+04    0.000000e+00   -7.967392e+00    5.826458e+00    7.672806e-24
   1.828644e-04    2.946404e+06    2.067023e+00    2.946402e+06    0.000000e+00    9.835098e+04    0.000000e+00   -7.828354e+00    5.826424e+00    7.672584e-24
   1.839497e-04    2.920345e+06    1.354276e+00    2.920344e+06    0.000000e+00    9.777023e+04    0.000000e+00   -5.920573e+00    5.826390e+00    7.672361e-24
   1.850414e-04    2.894516e+06    3.161986e-01    2.894515e+06    0.000000e+00    9.719291e+04    0.000000e+00   -2.284009e+00    5.826356e+00    7.672137e-24
   1.861396e-04    2.868917e+06    1.501883e+00    2.868916e+06    0.000000e+00    9.661900e+04    0.000000e+00   -6.339068e+00    5.826322e+00    7.671911e-24
   1.872443e-04    2.843544e+06    2.043513e+00    2.843542e+06    0.000000e+00    9.604847e+04    0.000000e+00   -7.769323e+00    5.826287e+00    7.671684e-24
   1.883556e-04    2.818395e+06    1.945533e+00    2.818393e+06    0.000000e+00    9.548130e+04    0.000000e+00   -7.520982e+00    5.826253e+00    7.671456e-24
   1.894735e-04    2.793467e+06    1.225189e+00    2.793466e+06    0.000000e+00    9.491749e+04    0.000000e+00   -5.542249e+00    5.826218e+00    7.671226e-24
   1.905980e-04    2.768759e+06    3.991993e-01    2.768759e+06    0.000000e+00    9.435700e+04    0.000000e+00   -2.657392e+00    5.826183e+00    7.670995e-24
   1.917292e-04    2.744272e+06    1.490910e+00    2.744271e+06    0.000000e+00    9.379981e+04    0.000000e+00   -6.308314e+00    5.826147e+00    7.670762e-24
   1.928671e-04    2.720001e+06    1.966832e+00    2.719999e+06    0.000000e+00    9.324592e+04    0.000000e+00   -7.575064e+00    5.826112e+00    7.670529e-24
   1.940117e-04    2.695943e+06    1.836012e+00    2.695942e+06    0.000000e+00    9.269529e+04    0.000000e+00   -7.238276e+00    5.826076e+00    7.670293e-24
   1.951632e-04    2.672098e+06    1.100611e+00    2.672097e+06    0.000000e+00    9.214791e+04    0.000000e+00   -5.164339e+00    5.826040e+00    7.670057e-24
   1.963215e-04    2.648464e+06    4.698622e-01    2.648463e+06    0.000000e+00    9.160376e+04    0.000000e+00   -2.955107e+00    5.826004e+00    7.669819e-24
   1.974866e-04    2.625040e+06    1.481746e+00    2.625038e+06    0.000000e+00    9.106282e+04    0.000000e+00   -6.282584e+00    5.825967e+00    7.669579e-24
   1.986587e-04    2.601822e+06    1.888587e+00    2.601820e+06    0.000000e+00    9.052507e+04    0.000000e+00   -7.374697e+00    5.825931e+00    7.669339e-24
   1.998377e-04    2.578810e+06    1.724352e+00    2.578808e+06    0.000000e+00    8.999050e+04    0.000000e+00   -6.944339e+00    5.825894e+00    7.669096e-24
   2.010238e-04    2.556000e+06    9.838985e-01    2.555999e+06    0.000000e+00    8.945908e+04    0.000000e+00   -4.796915e+00    5.825857e+00    7.668853e-24
   2.022168e-04    2.533392e+06    5.360484e-01    2.533391e+06    0.000000e+00    8.893079e+04    0.000000e+00   -3.220816e+00    5.825820e+00    7.668608e-24
   2.034170e-04    2.510985e+06    1.463197e+00    2.510983e+06    0.000000e+00    8.840562e+04    0.000000e+00   -6.230837e+00    5.825782e+00    7.668361e-24
   2.046242e-04    2.488775e+06    1.812316e+00    2.488774e+06    0.000000e+00    8.788355e+04    0.000000e+00   -7.176577e+00    5.825744e+00    7.668113e-24
