# All units in Hartree [AU] if not specified
# Convergence: Err(φ)=3.890e-11, Err(n_e)=9.434e-11, Err(IET)=9.970e-13, Q_net=6.080e-07
# {"name":"Ar", "Z":18, "Zstar":0.3346179790383168, "A":39.948,  "μ[AU]": 2.2262918938e-03, "Te[AU]": 1.645e-03, "Ti[AU]": 1.645e-03, "rs[AU]": 1.372e+01 }
   r[AU]           n[AU]           nf[AU]          nb[AU]          n_ion[AU]       φtot[AU]        δVxc/δρ[Au]     U_ei[AU]        U_ii[AU]        g_ii            
   1.000000e-04    7.290099e+06    6.070522e+00    7.290093e+06    0.000000e+00    1.799172e+05    0.000000e+00   -1.598378e+01    4.591871e+00   -1.087648e-27
   1.005935e-04    7.225648e+06    5.729274e+00    7.225642e+06    0.000000e+00    1.788552e+05    0.000000e+00   -1.538121e+01    4.591857e+00   -1.087630e-27
   1.011905e-04    7.161766e+06    4.776309e+00    7.161761e+06    0.000000e+00    1.777995e+05    0.000000e+00   -1.363098e+01    4.591843e+00   -1.087613e-27
   1.017911e-04    7.098448e+06    3.227427e+00    7.098444e+06    0.000000e+00    1.767500e+05    0.000000e+00   -1.050955e+01    4.591828e+00   -1.087595e-27
   1.023952e-04    7.035688e+06    1.098154e+00    7.035687e+06    0.000000e+00    1.757067e+05    0.000000e+00   -5.152241e+00    4.591814e+00   -1.087578e-27
   1.030029e-04    6.973488e+06    2.600023e+00    6.973485e+06    0.000000e+00    1.746696e+05    0.000000e+00   -9.106990e+00    4.591799e+00   -1.087560e-27
   1.036142e-04    6.911837e+06    4.226279e+00    6.911832e+06    0.000000e+00    1.736385e+05    0.000000e+00   -1.256778e+01    4.591784e+00   -1.087542e-27
   1.042292e-04    6.850730e+06    5.234211e+00    6.850725e+06    0.000000e+00    1.726136e+05    0.000000e+00   -1.448521e+01    4.591769e+00   -1.087524e-27
   1.048478e-04    6.790163e+06    5.639355e+00    6.790157e+06    0.000000e+00    1.715947e+05    0.000000e+00   -1.521989e+01    4.591754e+00   -1.087506e-27
   1.054700e-04    6.730130e+06    5.456980e+00    6.730125e+06    0.000000e+00    1.705818e+05    0.000000e+00   -1.489106e+01    4.591739e+00   -1.087488e-27
   1.060960e-04    6.670628e+06    4.702097e+00    6.670623e+06    0.000000e+00    1.695749e+05    0.000000e+00   -1.348997e+01    4.591724e+00   -1.087470e-27
   1.067257e-04    6.611651e+06    3.389457e+00    6.611647e+06    0.000000e+00    1.685739e+05    0.000000e+00   -1.085668e+01    4.591709e+00   -1.087452e-27
   1.073591e-04    6.553194e+06    1.533558e+00    6.553193e+06    0.000000e+00    1.675789e+05    0.000000e+00   -6.422404e+00    4.591694e+00   -1.087433e-27
   1.079962e-04    6.495257e+06    1.989218e+00    6.495255e+06    0.000000e+00    1.665897e+05    0.000000e+00   -7.627754e+00    4.591678e+00   -1.087415e-27
   1.086372e-04    6.437833e+06    3.636609e+00    6.437829e+06    0.000000e+00    1.656063e+05    0.000000e+00   -1.137499e+01    4.591663e+00   -1.087396e-27
   1.092819e-04    6.380915e+06    4.706051e+00    6.380911e+06    0.000000e+00    1.646288e+05    0.000000e+00   -1.349754e+01    4.591647e+00   -1.087377e-27
   1.099305e-04    6.324501e+06    5.221191e+00    6.324495e+06    0.000000e+00    1.636570e+05    0.000000e+00   -1.446135e+01    4.591632e+00   -1.087359e-27
   1.105830e-04    6.268584e+06    5.163269e+00    6.268579e+06    0.000000e+00    1.626910e+05    0.000000e+00   -1.435445e+01    4.591616e+00   -1.087340e-27
   1.112393e-04    6.213161e+06    4.580239e+00    6.213156e+06    0.000000e+00    1.617306e+05    0.000000e+00   -1.325706e+01    4.591600e+00   -1.087320e-27
   1.118995e-04    6.158227e+06    3.476215e+00    6.158224e+06    0.000000e+00    1.607759e+05    0.000000e+00   -1.104027e+01    4.591584e+00   -1.087301e-27
   1.125636e-04    6.103779e+06    1.863387e+00    6.103777e+06    0.000000e+00    1.598269e+05    0.000000e+00   -7.305091e+00    4.591568e+00   -1.087282e-27
   1.132316e-04    6.049812e+06    1.422779e+00    6.049811e+06    0.000000e+00    1.588834e+05    0.000000e+00   -6.112083e+00    4.591552e+00   -1.087262e-27
   1.139037e-04    5.996325e+06    3.088606e+00    5.996322e+06    0.000000e+00    1.579455e+05    0.000000e+00   -1.020784e+01    4.591536e+00   -1.087243e-27
   1.145797e-04    5.943310e+06    4.204701e+00    5.943306e+06    0.000000e+00    1.570132e+05    0.000000e+00   -1.252536e+01    4.591520e+00   -1.087223e-27
   1.152597e-04    5.890763e+06    4.794553e+00    5.890758e+06    0.000000e+00    1.560863e+05    0.000000e+00   -1.366530e+01    4.591503e+00   -1.087203e-27
   1.159437e-04    5.838680e+06    4.870920e+00    5.838675e+06    0.000000e+00    1.551649e+05    0.000000e+00   -1.380973e+01    4.591487e+00   -1.087184e-27
   1.166319e-04    5.787057e+06    4.431238e+00    5.787053e+06    0.000000e+00    1.542490e+05    0.000000e+00   -1.296919e+01    4.591470e+00   -1.087164e-27
   1.173241e-04    5.735890e+06    3.510643e+00    5.735886e+06    0.000000e+00    1.533384e+05    0.000000e+00   -1.111239e+01    4.591453e+00   -1.087143e-27
   1.180204e-04    5.685174e+06    2.116837e+00    5.685172e+06    0.000000e+00    1.524333e+05    0.000000e+00   -7.948132e+00    4.591437e+00   -1.087123e-27
   1.187208e-04    5.634907e+06    9.107840e-01    5.634906e+06    0.000000e+00    1.515334e+05    0.000000e+00   -4.554951e+00    4.591420e+00   -1.087103e-27
   1.194254e-04    5.585087e+06    2.568505e+00    5.585084e+06    0.000000e+00    1.506389e+05    0.000000e+00   -9.033726e+00    4.591403e+00   -1.087082e-27
   1.201342e-04    5.535706e+06    3.723199e+00    5.535703e+06    0.000000e+00    1.497497e+05    0.000000e+00   -1.155435e+01    4.591386e+00   -1.087062e-27
   1.208472e-04    5.486762e+06    4.378108e+00    5.486758e+06    0.000000e+00    1.488657e+05    0.000000e+00   -1.286534e+01    4.591368e+00   -1.087041e-27
   1.215644e-04    5.438250e+06    4.555570e+00    5.438245e+06    0.000000e+00    1.479869e+05    0.000000e+00   -1.320944e+01    4.591351e+00   -1.087020e-27
   1.222859e-04    5.390166e+06    4.257917e+00    5.390162e+06    0.000000e+00    1.471133e+05    0.000000e+00   -1.262982e+01    4.591334e+00   -1.086999e-27
   1.230117e-04    5.342507e+06    3.501198e+00    5.342503e+06    0.000000e+00    1.462448e+05    0.000000e+00   -1.109268e+01    4.591316e+00   -1.086978e-27
   1.237417e-04    5.295268e+06    2.298134e+00    5.295266e+06    0.000000e+00    1.453815e+05    0.000000e+00   -8.392293e+00    4.591299e+00   -1.086957e-27
   1.244761e-04    5.248447e+06    6.653223e-01    5.248446e+06    0.000000e+00    1.445233e+05    0.000000e+00   -3.705562e+00    4.591281e+00   -1.086935e-27
   1.252149e-04    5.202042e+06    2.094452e+00    5.202040e+06    0.000000e+00    1.436701e+05    0.000000e+00   -7.892311e+00    4.591263e+00   -1.086914e-27
   1.259580e-04    5.156047e+06    3.273158e+00    5.156044e+06    0.000000e+00    1.428220e+05    0.000000e+00   -1.060832e+01    4.591245e+00   -1.086892e-27
   1.267056e-04    5.110459e+06    3.980680e+00    5.110455e+06    0.000000e+00    1.419789e+05    0.000000e+00   -1.207819e+01    4.591227e+00   -1.086870e-27
   1.274576e-04    5.065273e+06    4.239352e+00    5.065268e+06    0.000000e+00    1.411407e+05    0.000000e+00   -1.259338e+01    4.591209e+00   -1.086849e-27
   1.282140e-04    5.020485e+06    4.057482e+00    5.020481e+06    0.000000e+00    1.403075e+05    0.000000e+00   -1.223268e+01    4.591191e+00   -1.086827e-27
   1.289750e-04    4.976094e+06    3.453918e+00    4.976090e+06    0.000000e+00    1.394792e+05    0.000000e+00   -1.099319e+01    4.591172e+00   -1.086804e-27
   1.297404e-04    4.932094e+06    2.424515e+00    4.932091e+06    0.000000e+00    1.386558e+05    0.000000e+00   -8.694874e+00    4.591154e+00   -1.086782e-27
   1.305104e-04    4.888482e+06    9.876519e-01    4.888481e+06    0.000000e+00    1.378373e+05    0.000000e+00   -4.804343e+00    4.591135e+00   -1.086760e-27
   1.312850e-04    4.845259e+06    1.656963e+00    4.845257e+06    0.000000e+00    1.370235e+05    0.000000e+00   -6.759435e+00    4.591117e+00   -1.086737e-27
   1.320642e-04    4.802417e+06    2.843993e+00    4.802415e+06    0.000000e+00    1.362146e+05    0.000000e+00   -9.664352e+00    4.591098e+00   -1.086714e-27
   1.328480e-04    4.759954e+06    3.597289e+00    4.759951e+06    0.000000e+00    1.354105e+05    0.000000e+00   -1.129377e+01    4.591079e+00   -1.086692e-27
   1.336364e-04    4.717866e+06    3.929680e+00    4.717862e+06    0.000000e+00    1.346111e+05    0.000000e+00   -1.197567e+01    4.591060e+00   -1.086669e-27
   1.344295e-04    4.676150e+06    3.848882e+00    4.676146e+06    0.000000e+00    1.338164e+05    0.000000e+00   -1.181154e+01    4.591041e+00   -1.086646e-27
   1.352274e-04    4.634802e+06    3.365065e+00    4.634798e+06    0.000000e+00    1.330264e+05    0.000000e+00   -1.080492e+01    4.591021e+00   -1.086622e-27
   1.360299e-04    4.593819e+06    2.489770e+00    4.593816e+06    0.000000e+00    1.322411e+05    0.000000e+00   -8.849356e+00    4.591002e+00   -1.086599e-27
   1.368372e-04    4.553197e+06    1.244573e+00    4.553196e+06    0.000000e+00    1.314604e+05    0.000000e+00   -5.595518e+00    4.590983e+00   -1.086576e-27
   1.376494e-04    4.512936e+06    1.259327e+00    4.512935e+06    0.000000e+00    1.306843e+05    0.000000e+00   -5.639008e+00    4.590963e+00   -1.086552e-27
   1.384663e-04    4.473032e+06    2.446999e+00    4.473030e+06    0.000000e+00    1.299128e+05    0.000000e+00   -8.748429e+00    4.590943e+00   -1.086528e-27
   1.392881e-04    4.433481e+06    3.234462e+00    4.433478e+06    0.000000e+00    1.291458e+05    0.000000e+00   -1.052483e+01    4.590923e+00   -1.086504e-27
   1.401148e-04    4.394278e+06    3.628675e+00    4.394275e+06    0.000000e+00    1.283834e+05    0.000000e+00   -1.135867e+01    4.590903e+00   -1.086480e-27
   1.409463e-04    4.355422e+06    3.630690e+00    4.355418e+06    0.000000e+00    1.276254e+05    0.000000e+00   -1.136282e+01    4.590883e+00   -1.086456e-27
   1.417828e-04    4.316909e+06    3.260661e+00    4.316906e+06    0.000000e+00    1.268720e+05    0.000000e+00   -1.058147e+01    4.590863e+00   -1.086432e-27
   1.426243e-04    4.278736e+06    2.522050e+00    4.278733e+06    0.000000e+00    1.261230e+05    0.000000e+00   -8.925189e+00    4.590843e+00   -1.086407e-27
   1.434708e-04    4.240899e+06    1.428770e+00    4.240898e+06    0.000000e+00    1.253784e+05    0.000000e+00   -6.128931e+00    4.590822e+00   -1.086383e-27
   1.443223e-04    4.203398e+06    8.973158e-01    4.203397e+06    0.000000e+00    1.246381e+05    0.000000e+00   -4.510274e+00    4.590802e+00   -1.086358e-27
   1.451788e-04    4.166230e+06    2.082708e+00    4.166228e+06    0.000000e+00    1.239023e+05    0.000000e+00   -7.862788e+00    4.590781e+00   -1.086333e-27
   1.460404e-04    4.129390e+06    2.889678e+00    4.129387e+06    0.000000e+00    1.231708e+05    0.000000e+00   -9.767317e+00    4.590760e+00   -1.086308e-27
   1.469072e-04    4.092876e+06    3.330021e+00    4.092872e+06    0.000000e+00    1.224436e+05    0.000000e+00   -1.072988e+01    4.590740e+00   -1.086283e-27
   1.477791e-04    4.056684e+06    3.411658e+00    4.056680e+06    0.000000e+00    1.217207e+05    0.000000e+00   -1.090347e+01    4.590719e+00   -1.086257e-27
   1.486561e-04    4.020811e+06    3.135593e+00    4.020808e+06    0.000000e+00    1.210021e+05    0.000000e+00   -1.031045e+01    4.590697e+00   -1.086232e-27
   1.495384e-04    3.985255e+06    2.516543e+00    3.985252e+06    0.000000e+00    1.202877e+05    0.000000e+00   -8.912191e+00    4.590676e+00   -1.086206e-27
   1.504259e-04    3.950013e+06    1.568964e+00    3.950011e+06    0.000000e+00    1.195775e+05    0.000000e+00   -6.519800e+00    4.590655e+00   -1.086180e-27
   1.513187e-04    3.915082e+06    5.702706e-01    3.915082e+06    0.000000e+00    1.188715e+05    0.000000e+00   -3.349349e+00    4.590633e+00   -1.086154e-27
   1.522167e-04    3.880463e+06    1.745902e+00    3.880461e+06    0.000000e+00    1.181697e+05    0.000000e+00   -6.997181e+00    4.590611e+00   -1.086128e-27
   1.531201e-04    3.846149e+06    2.567545e+00    3.846146e+06    0.000000e+00    1.174720e+05    0.000000e+00   -9.031503e+00    4.590590e+00   -1.086102e-27
   1.540289e-04    3.812138e+06    3.047226e+00    3.812135e+06    0.000000e+00    1.167785e+05    0.000000e+00   -1.011700e+01    4.590568e+00   -1.086076e-27
   1.549430e-04    3.778427e+06    3.186294e+00    3.778424e+06    0.000000e+00    1.160890e+05    0.000000e+00   -1.042074e+01    4.590546e+00   -1.086049e-27
   1.558626e-04    3.745014e+06    3.000623e+00    3.745011e+06    0.000000e+00    1.154036e+05    0.000000e+00   -1.001409e+01    4.590524e+00   -1.086022e-27
   1.567877e-04    3.711896e+06    2.488706e+00    3.711893e+06    0.000000e+00    1.147223e+05    0.000000e+00   -8.846867e+00    4.590501e+00   -1.085995e-27
   1.577182e-04    3.679070e+06    1.664190e+00    3.679069e+06    0.000000e+00    1.140449e+05    0.000000e+00   -6.778792e+00    4.590479e+00   -1.085968e-27
   1.586542e-04    3.646534e+06    5.402049e-01    3.646534e+06    0.000000e+00    1.133716e+05    0.000000e+00   -3.232614e+00    4.590456e+00   -1.085941e-27
   1.595958e-04    3.614288e+06    1.436814e+00    3.614287e+06    0.000000e+00    1.127022e+05    0.000000e+00   -6.151778e+00    4.590433e+00   -1.085914e-27
   1.605430e-04    3.582327e+06    2.266477e+00    3.582325e+06    0.000000e+00    1.120368e+05    0.000000e+00   -8.315581e+00    4.590411e+00   -1.085886e-27
   1.614958e-04    3.550648e+06    2.772635e+00    3.550645e+06    0.000000e+00    1.113753e+05    0.000000e+00   -9.503242e+00    4.590388e+00   -1.085858e-27
   1.624543e-04    3.519249e+06    2.969124e+00    3.519246e+06    0.000000e+00    1.107177e+05    0.000000e+00   -9.944477e+00    4.590364e+00   -1.085831e-27
   1.634185e-04    3.488126e+06    2.855093e+00    3.488124e+06    0.000000e+00    1.100640e+05    0.000000e+00   -9.689520e+00    4.590341e+00   -1.085803e-27
   1.643883e-04    3.457279e+06    2.438183e+00    3.457277e+06    0.000000e+00    1.094141e+05    0.000000e+00   -8.727406e+00    4.590318e+00   -1.085774e-27
   1.653640e-04    3.426704e+06    1.727906e+00    3.426702e+06    0.000000e+00    1.087681e+05    0.000000e+00   -6.949143e+00    4.590294e+00   -1.085746e-27
   1.663454e-04    3.396399e+06    7.324051e-01    3.396398e+06    0.000000e+00    1.081259e+05    0.000000e+00   -3.946786e+00    4.590271e+00   -1.085717e-27
   1.673327e-04    3.366363e+06    1.155998e+00    3.366362e+06    0.000000e+00    1.074875e+05    0.000000e+00   -5.329435e+00    4.590247e+00   -1.085689e-27
   1.683258e-04    3.336594e+06    1.985883e+00    3.336592e+06    0.000000e+00    1.068528e+05    0.000000e+00   -7.619303e+00    4.590223e+00   -1.085660e-27
   1.693248e-04    3.307087e+06    2.515206e+00    3.307084e+06    0.000000e+00    1.062219e+05    0.000000e+00   -8.909030e+00    4.590199e+00   -1.085631e-27
   1.703297e-04    3.277840e+06    2.748968e+00    3.277837e+06    0.000000e+00    1.055947e+05    0.000000e+00   -9.449072e+00    4.590174e+00   -1.085602e-27
   1.713406e-04    3.248852e+06    2.699489e+00    3.248849e+06    0.000000e+00    1.049712e+05    0.000000e+00   -9.336487e+00    4.590150e+00   -1.085572e-27
   1.723575e-04    3.220120e+06    2.368228e+00    3.220117e+06    0.000000e+00    1.043514e+05    0.000000e+00   -8.560866e+00    4.590126e+00   -1.085543e-27
   1.733804e-04    3.191641e+06    1.760781e+00    3.191639e+06    0.000000e+00    1.037353e+05    0.000000e+00   -7.036523e+00    4.590101e+00   -1.085513e-27
   1.744094e-04    3.163414e+06    8.850456e-01    3.163413e+06    0.000000e+00    1.031228e+05    0.000000e+00   -4.469829e+00    4.590076e+00   -1.085483e-27
   1.754445e-04    3.135437e+06    9.017089e-01    3.135436e+06    0.000000e+00    1.025139e+05    0.000000e+00   -4.524919e+00    4.590051e+00   -1.085453e-27
   1.764858e-04    3.107708e+06    1.727661e+00    3.107707e+06    0.000000e+00    1.019086e+05    0.000000e+00   -6.948487e+00    4.590026e+00   -1.085423e-27
   1.775332e-04    3.080225e+06    2.271056e+00    3.080222e+06    0.000000e+00    1.013068e+05    0.000000e+00   -8.326628e+00    4.590001e+00   -1.085392e-27
   1.785869e-04    3.052983e+06    2.540760e+00    3.052981e+06    0.000000e+00    1.007086e+05    0.000000e+00   -8.969142e+00    4.589975e+00   -1.085361e-27
   1.796468e-04    3.025983e+06    2.542359e+00    3.025980e+06    0.000000e+00    1.001140e+05    0.000000e+00   -8.972883e+00    4.589950e+00   -1.085331e-27
   1.807130e-04    2.999221e+06    2.281042e+00    2.999218e+06    0.000000e+00    9.952283e+04    0.000000e+00   -8.350640e+00    4.589924e+00   -1.085300e-27
   1.817855e-04    2.972695e+06    1.766076e+00    2.972693e+06    0.000000e+00    9.893517e+04    0.000000e+00   -7.050445e+00    4.589898e+00   -1.085269e-27
   1.828644e-04    2.946403e+06    9.992563e-01    2.946402e+06    0.000000e+00    9.835098e+04    0.000000e+00   -4.841624e+00    4.589872e+00   -1.085237e-27
   1.839497e-04    2.920344e+06    6.730437e-01    2.920343e+06    0.000000e+00    9.777023e+04    0.000000e+00   -3.733684e+00    4.589846e+00   -1.085206e-27
   1.850414e-04    2.894517e+06    1.490518e+00    2.894515e+06    0.000000e+00    9.719291e+04    0.000000e+00   -6.302820e+00    4.589819e+00   -1.085174e-27
   1.861396e-04    2.868917e+06    2.043737e+00    2.868915e+06    0.000000e+00    9.661899e+04    0.000000e+00   -7.765443e+00    4.589793e+00   -1.085142e-27
   1.872443e-04    2.843544e+06    2.339099e+00    2.843542e+06    0.000000e+00    9.604846e+04    0.000000e+00   -8.491021e+00    4.589766e+00   -1.085110e-27
   1.883556e-04    2.818395e+06    2.385311e+00    2.818392e+06    0.000000e+00    9.548130e+04    0.000000e+00   -8.601871e+00    4.589740e+00   -1.085078e-27
   1.894735e-04    2.793468e+06    2.186261e+00    2.793465e+06    0.000000e+00    9.491748e+04    0.000000e+00   -8.119693e+00    4.589713e+00   -1.085045e-27
   1.905980e-04    2.768761e+06    1.747538e+00    2.768759e+06    0.000000e+00    9.435699e+04    0.000000e+00   -7.001523e+00    4.589685e+00   -1.085012e-27
   1.917292e-04    2.744272e+06    1.078414e+00    2.744271e+06    0.000000e+00    9.379981e+04    0.000000e+00   -5.090833e+00    4.589658e+00   -1.084979e-27
   1.928671e-04    2.719999e+06    4.762756e-01    2.719999e+06    0.000000e+00    9.324591e+04    0.000000e+00   -2.976972e+00    4.589631e+00   -1.084946e-27
   1.940117e-04    2.695943e+06    1.274410e+00    2.695941e+06    0.000000e+00    9.269528e+04    0.000000e+00   -5.683604e+00    4.589603e+00   -1.084913e-27
   1.951632e-04    2.672099e+06    1.831806e+00    2.672097e+06    0.000000e+00    9.214791e+04    0.000000e+00   -7.222689e+00    4.589575e+00   -1.084880e-27
   1.963215e-04    2.648465e+06    2.148558e+00    2.648463e+06    0.000000e+00    9.160376e+04    0.000000e+00   -8.026438e+00    4.589547e+00   -1.084846e-27
   1.974866e-04    2.625040e+06    2.230177e+00    2.625038e+06    0.000000e+00    9.106282e+04    0.000000e+00   -8.227213e+00    4.589519e+00   -1.084812e-27
   1.986587e-04    2.601822e+06    2.085026e+00    2.601820e+06    0.000000e+00    9.052507e+04    0.000000e+00   -7.868629e+00    4.589491e+00   -1.084778e-27
   1.998377e-04    2.578809e+06    1.718385e+00    2.578808e+06    0.000000e+00    8.999049e+04    0.000000e+00   -6.923881e+00    4.589462e+00   -1.084744e-27
   2.010238e-04    2.556000e+06    1.127640e+00    2.555998e+06    0.000000e+00    8.945907e+04    0.000000e+00   -5.242994e+00    4.589434e+00   -1.084709e-27
   2.022168e-04    2.533391e+06    3.304240e-01    2.533391e+06    0.000000e+00    8.893079e+04    0.000000e+00   -2.345568e+00    4.589405e+00   -1.084675e-27
   2.034170e-04    2.510984e+06    1.083914e+00    2.510983e+06    0.000000e+00    8.840562e+04    0.000000e+00   -5.107910e+00    4.589376e+00   -1.084640e-27
   2.046242e-04    2.488775e+06    1.636271e+00    2.488773e+06    0.000000e+00    8.788355e+04    0.000000e+00   -6.703542e+00    4.589347e+00   -1.084605e-27
