# All units in Hartree [AU] if not specified
# Convergence: Err(φ)=3.942e-11, Err(n_e)=8.951e-11, Err(IET)=1.516e+90, Q_net=5.062e-07
# {"name":"Ar", "Z":18, "Zstar":0.3965000687248974, "A":39.948,  "μ[AU]": -4.0347543661e-03, "Te[AU]": 5.815e-03, "Ti[AU]": 5.815e-03, "rs[AU]": 1.372e+01 }
   r[AU]           n[AU]           nf[AU]          nb[AU]          n_ion[AU]       φtot[AU]        δVxc/δρ[Au]     U_ei[AU]        U_ii[AU]        g_ii            
   1.000000e-04    7.290098e+06    5.034422e+00    7.290093e+06    0.000000e+00    1.799172e+05    0.000000e+00   -1.412481e+01    6.581707e+00    1.289678e+01
   1.005935e-04    7.225646e+06    3.169740e+00    7.225643e+06    0.000000e+00    1.788552e+05    0.000000e+00   -1.039386e+01    6.581685e+00    1.289668e+01
   1.011905e-04    7.161763e+06    1.173703e+00    7.161761e+06    0.000000e+00    1.777995e+05    0.000000e+00   -5.392193e+00    6.581664e+00    1.289657e+01
   1.017911e-04    7.098449e+06    4.037644e+00    7.098445e+06    0.000000e+00    1.767500e+05    0.000000e+00   -1.220197e+01    6.581643e+00    1.289646e+01
   1.023952e-04    7.035693e+06    5.031602e+00    7.035688e+06    0.000000e+00    1.757067e+05    0.000000e+00   -1.411957e+01    6.581622e+00    1.289636e+01
   1.030029e-04    6.973490e+06    4.160163e+00    6.973485e+06    0.000000e+00    1.746696e+05    0.000000e+00   -1.244621e+01    6.581600e+00    1.289625e+01
   1.036142e-04    6.911834e+06    1.508385e+00    6.911833e+06    0.000000e+00    1.736386e+05    0.000000e+00   -6.361533e+00    6.581578e+00    1.289614e+01
   1.042292e-04    6.850728e+06    2.714549e+00    6.850725e+06    0.000000e+00    1.726136e+05    0.000000e+00   -9.379902e+00    6.581557e+00    1.289603e+01
   1.048478e-04    6.790162e+06    4.577076e+00    6.790157e+06    0.000000e+00    1.715947e+05    0.000000e+00   -1.326003e+01    6.581535e+00    1.289592e+01
   1.054700e-04    6.730130e+06    4.626863e+00    6.730125e+06    0.000000e+00    1.705818e+05    0.000000e+00   -1.335519e+01    6.581513e+00    1.289581e+01
   1.060960e-04    6.670626e+06    2.954249e+00    6.670624e+06    0.000000e+00    1.695749e+05    0.000000e+00   -9.920423e+00    6.581490e+00    1.289570e+01
   1.067257e-04    6.611649e+06    1.033325e+00    6.611648e+06    0.000000e+00    1.685740e+05    0.000000e+00   -4.958708e+00    6.581468e+00    1.289559e+01
   1.073591e-04    6.553197e+06    3.705187e+00    6.553193e+06    0.000000e+00    1.675789e+05    0.000000e+00   -1.152627e+01    6.581445e+00    1.289548e+01
   1.079962e-04    6.495260e+06    4.631619e+00    6.495255e+06    0.000000e+00    1.665897e+05    0.000000e+00   -1.336423e+01    6.581423e+00    1.289537e+01
   1.086372e-04    6.437833e+06    3.855545e+00    6.437829e+06    0.000000e+00    1.656063e+05    0.000000e+00   -1.183374e+01    6.581400e+00    1.289525e+01
   1.092819e-04    6.380912e+06    1.393909e+00    6.380911e+06    0.000000e+00    1.646288e+05    0.000000e+00   -6.038977e+00    6.581377e+00    1.289514e+01
   1.099305e-04    6.324498e+06    2.476210e+00    6.324496e+06    0.000000e+00    1.636570e+05    0.000000e+00   -8.826459e+00    6.581354e+00    1.289502e+01
   1.105830e-04    6.268583e+06    4.202896e+00    6.268579e+06    0.000000e+00    1.626910e+05    0.000000e+00   -1.253068e+01    6.581331e+00    1.289491e+01
   1.112393e-04    6.213161e+06    4.271036e+00    6.213157e+06    0.000000e+00    1.617306e+05    0.000000e+00   -1.266505e+01    6.581308e+00    1.289479e+01
   1.118995e-04    6.158227e+06    2.711840e+00    6.158224e+06    0.000000e+00    1.607759e+05    0.000000e+00   -9.373728e+00    6.581284e+00    1.289467e+01
   1.125636e-04    6.103778e+06    9.227644e-01    6.103777e+06    0.000000e+00    1.598269e+05    0.000000e+00   -4.603078e+00    6.581261e+00    1.289456e+01
   1.132316e-04    6.049815e+06    3.401404e+00    6.049811e+06    0.000000e+00    1.588834e+05    0.000000e+00   -1.089067e+01    6.581237e+00    1.289444e+01
   1.139037e-04    5.996327e+06    4.263819e+00    5.996322e+06    0.000000e+00    1.579455e+05    0.000000e+00   -1.265078e+01    6.581213e+00    1.289432e+01
   1.145797e-04    5.943310e+06    3.540525e+00    5.943306e+06    0.000000e+00    1.570132e+05    0.000000e+00   -1.118415e+01    6.581189e+00    1.289420e+01
   1.152597e-04    5.890760e+06    1.298107e+00    5.890759e+06    0.000000e+00    1.560863e+05    0.000000e+00   -5.761886e+00    6.581165e+00    1.289408e+01
   1.159437e-04    5.838678e+06    2.263385e+00    5.838676e+06    0.000000e+00    1.551649e+05    0.000000e+00   -8.316974e+00    6.581141e+00    1.289396e+01
   1.166319e-04    5.787057e+06    3.863503e+00    5.787053e+06    0.000000e+00    1.542490e+05    0.000000e+00   -1.184999e+01    6.581117e+00    1.289384e+01
   1.173241e-04    5.735890e+06    3.927194e+00    5.735886e+06    0.000000e+00    1.533384e+05    0.000000e+00   -1.197964e+01    6.581092e+00    1.289371e+01
   1.180204e-04    5.685175e+06    2.507795e+00    5.685172e+06    0.000000e+00    1.524333e+05    0.000000e+00   -8.900682e+00    6.581067e+00    1.289359e+01
   1.187208e-04    5.634907e+06    8.221370e-01    5.634906e+06    0.000000e+00    1.515334e+05    0.000000e+00   -4.267199e+00    6.581042e+00    1.289347e+01
   1.194254e-04    5.585087e+06    3.121668e+00    5.585084e+06    0.000000e+00    1.506389e+05    0.000000e+00   -1.028905e+01    6.581017e+00    1.289334e+01
   1.201342e-04    5.535707e+06    3.923839e+00    5.535703e+06    0.000000e+00    1.497497e+05    0.000000e+00   -1.197286e+01    6.580992e+00    1.289322e+01
   1.208472e-04    5.486761e+06    3.264924e+00    5.486758e+06    0.000000e+00    1.488657e+05    0.000000e+00   -1.059960e+01    6.580967e+00    1.289309e+01
   1.215644e-04    5.438247e+06    1.184748e+00    5.438246e+06    0.000000e+00    1.479869e+05    0.000000e+00   -5.425397e+00    6.580942e+00    1.289296e+01
   1.222859e-04    5.390164e+06    2.066083e+00    5.390162e+06    0.000000e+00    1.471133e+05    0.000000e+00   -7.830214e+00    6.580916e+00    1.289284e+01
   1.230117e-04    5.342507e+06    3.556752e+00    5.342503e+06    0.000000e+00    1.462448e+05    0.000000e+00   -1.121822e+01    6.580890e+00    1.289271e+01
   1.237417e-04    5.295270e+06    3.620935e+00    5.295266e+06    0.000000e+00    1.453815e+05    0.000000e+00   -1.135148e+01    6.580864e+00    1.289258e+01
   1.244761e-04    5.248449e+06    2.304519e+00    5.248446e+06    0.000000e+00    1.445233e+05    0.000000e+00   -8.416855e+00    6.580838e+00    1.289245e+01
   1.252149e-04    5.202041e+06    7.520993e-01    5.202040e+06    0.000000e+00    1.436701e+05    0.000000e+00   -4.025181e+00    6.580812e+00    1.289232e+01
   1.259580e-04    5.156047e+06    2.873557e+00    5.156044e+06    0.000000e+00    1.428220e+05    0.000000e+00   -9.740188e+00    6.580786e+00    1.289219e+01
   1.267056e-04    5.110459e+06    3.604129e+00    5.110455e+06    0.000000e+00    1.419789e+05    0.000000e+00   -1.131681e+01    6.580759e+00    1.289205e+01
   1.274576e-04    5.065272e+06    3.008759e+00    5.065269e+06    0.000000e+00    1.411407e+05    0.000000e+00   -1.004075e+01    6.580733e+00    1.289192e+01
   1.282140e-04    5.020483e+06    1.088603e+00    5.020482e+06    0.000000e+00    1.403075e+05    0.000000e+00   -5.131634e+00    6.580706e+00    1.289179e+01
   1.289750e-04    4.976092e+06    1.905742e+00    4.976090e+06    0.000000e+00    1.394792e+05    0.000000e+00   -7.423452e+00    6.580679e+00    1.289165e+01
   1.297404e-04    4.932095e+06    3.266107e+00    4.932092e+06    0.000000e+00    1.386558e+05    0.000000e+00   -1.060214e+01    6.580652e+00    1.289152e+01
   1.305104e-04    4.888485e+06    3.333594e+00    4.888482e+06    0.000000e+00    1.378373e+05    0.000000e+00   -1.074672e+01    6.580624e+00    1.289138e+01
   1.312850e-04    4.845259e+06    2.110290e+00    4.845257e+06    0.000000e+00    1.370236e+05    0.000000e+00   -7.940848e+00    6.580597e+00    1.289124e+01
   1.320642e-04    4.802416e+06    6.884912e-01    4.802415e+06    0.000000e+00    1.362146e+05    0.000000e+00   -3.798748e+00    6.580569e+00    1.289110e+01
   1.328480e-04    4.759954e+06    2.636392e+00    4.759951e+06    0.000000e+00    1.354105e+05    0.000000e+00   -9.200226e+00    6.580541e+00    1.289097e+01
   1.336364e-04    4.717866e+06    3.323143e+00    4.717863e+06    0.000000e+00    1.346111e+05    0.000000e+00   -1.072428e+01    6.580513e+00    1.289083e+01
   1.344295e-04    4.676149e+06    2.757904e+00    4.676146e+06    0.000000e+00    1.338164e+05    0.000000e+00   -9.478716e+00    6.580485e+00    1.289069e+01
   1.352274e-04    4.634800e+06    9.861085e-01    4.634799e+06    0.000000e+00    1.330264e+05    0.000000e+00   -4.808458e+00    6.580457e+00    1.289054e+01
   1.360299e-04    4.593818e+06    1.752919e+00    4.593816e+06    0.000000e+00    1.322411e+05    0.000000e+00   -7.024744e+00    6.580428e+00    1.289040e+01
   1.368372e-04    4.553199e+06    3.011792e+00    4.553196e+06    0.000000e+00    1.314604e+05    0.000000e+00   -1.004752e+01    6.580400e+00    1.289026e+01
   1.376494e-04    4.512938e+06    3.059373e+00    4.512935e+06    0.000000e+00    1.306843e+05    0.000000e+00   -1.015281e+01    6.580371e+00    1.289012e+01
   1.384663e-04    4.473032e+06    1.938038e+00    4.473030e+06    0.000000e+00    1.299128e+05    0.000000e+00   -7.506143e+00    6.580342e+00    1.288997e+01
   1.392881e-04    4.433478e+06    6.363684e-01    4.433478e+06    0.000000e+00    1.291458e+05    0.000000e+00   -3.607841e+00    6.580313e+00    1.288982e+01
   1.401148e-04    4.394277e+06    2.432615e+00    4.394275e+06    0.000000e+00    1.283834e+05    0.000000e+00   -8.723276e+00    6.580284e+00    1.288968e+01
   1.409463e-04    4.355422e+06    3.051315e+00    4.355419e+06    0.000000e+00    1.276254e+05    0.000000e+00   -1.013509e+01    6.580254e+00    1.288953e+01
   1.417828e-04    4.316908e+06    2.534141e+00    4.316906e+06    0.000000e+00    1.268720e+05    0.000000e+00   -8.962666e+00    6.580224e+00    1.288938e+01
   1.426243e-04    4.278734e+06    8.815874e-01    4.278733e+06    0.000000e+00    1.261230e+05    0.000000e+00   -4.467329e+00    6.580195e+00    1.288923e+01
   1.434708e-04    4.240900e+06    1.619844e+00    4.240898e+06    0.000000e+00    1.253784e+05    0.000000e+00   -6.667829e+00    6.580164e+00    1.288908e+01
   1.443223e-04    4.203400e+06    2.769478e+00    4.203398e+06    0.000000e+00    1.246381e+05    0.000000e+00   -9.505148e+00    6.580134e+00    1.288893e+01
   1.451788e-04    4.166231e+06    2.811647e+00    4.166228e+06    0.000000e+00    1.239023e+05    0.000000e+00   -9.600526e+00    6.580104e+00    1.288878e+01
   1.460404e-04    4.129390e+06    1.759288e+00    4.129388e+06    0.000000e+00    1.231708e+05    0.000000e+00   -7.041515e+00    6.580073e+00    1.288863e+01
   1.469072e-04    4.092873e+06    5.999604e-01    4.092873e+06    0.000000e+00    1.224436e+05    0.000000e+00   -3.471536e+00    6.580043e+00    1.288848e+01
   1.477791e-04    4.056683e+06    2.241515e+00    4.056680e+06    0.000000e+00    1.217207e+05    0.000000e+00   -8.263973e+00    6.580012e+00    1.288832e+01
   1.486561e-04    4.020811e+06    2.818370e+00    4.020808e+06    0.000000e+00    1.210021e+05    0.000000e+00   -9.615600e+00    6.579981e+00    1.288817e+01
   1.495384e-04    3.985255e+06    2.312291e+00    3.985253e+06    0.000000e+00    1.202877e+05    0.000000e+00   -8.435617e+00    6.579949e+00    1.288801e+01
   1.504259e-04    3.950013e+06    7.894053e-01    3.950012e+06    0.000000e+00    1.195775e+05    0.000000e+00   -4.154792e+00    6.579918e+00    1.288785e+01
   1.513187e-04    3.915084e+06    1.495711e+00    3.915082e+06    0.000000e+00    1.188716e+05    0.000000e+00   -6.326361e+00    6.579886e+00    1.288769e+01
   1.522167e-04    3.880464e+06    2.559658e+00    3.880461e+06    0.000000e+00    1.181697e+05    0.000000e+00   -9.022086e+00    6.579854e+00    1.288754e+01
   1.531201e-04    3.846149e+06    2.577358e+00    3.846147e+06    0.000000e+00    1.174721e+05    0.000000e+00   -9.063099e+00    6.579822e+00    1.288738e+01
   1.540289e-04    3.812137e+06    1.601954e+00    3.812135e+06    0.000000e+00    1.167785e+05    0.000000e+00   -6.619262e+00    6.579790e+00    1.288721e+01
   1.549430e-04    3.778425e+06    5.556830e-01    3.778424e+06    0.000000e+00    1.160890e+05    0.000000e+00   -3.301947e+00    6.579758e+00    1.288705e+01
   1.558626e-04    3.745013e+06    2.078585e+00    3.745011e+06    0.000000e+00    1.154036e+05    0.000000e+00   -7.861574e+00    6.579725e+00    1.288689e+01
   1.567877e-04    3.711896e+06    2.581721e+00    3.711894e+06    0.000000e+00    1.147223e+05    0.000000e+00   -9.073339e+00    6.579692e+00    1.288673e+01
   1.577182e-04    3.679071e+06    2.120078e+00    3.679069e+06    0.000000e+00    1.140449e+05    0.000000e+00   -7.965082e+00    6.579659e+00    1.288656e+01
   1.586542e-04    3.646535e+06    6.954521e-01    3.646534e+06    0.000000e+00    1.133716e+05    0.000000e+00   -3.823712e+00    6.579626e+00    1.288640e+01
   1.595958e-04    3.614289e+06    1.397414e+00    3.614287e+06    0.000000e+00    1.127022e+05    0.000000e+00   -6.049019e+00    6.579592e+00    1.288623e+01
   1.605430e-04    3.582327e+06    2.352690e+00    3.582325e+06    0.000000e+00    1.120368e+05    0.000000e+00   -8.532530e+00    6.579559e+00    1.288606e+01
   1.614958e-04    3.550648e+06    2.373614e+00    3.550645e+06    0.000000e+00    1.113753e+05    0.000000e+00   -8.582908e+00    6.579525e+00    1.288589e+01
   1.624543e-04    3.519247e+06    1.449164e+00    3.519246e+06    0.000000e+00    1.107177e+05    0.000000e+00   -6.195824e+00    6.579491e+00    1.288572e+01
   1.634185e-04    3.488124e+06    5.343893e-01    3.488124e+06    0.000000e+00    1.100640e+05    0.000000e+00   -3.218812e+00    6.579457e+00    1.288555e+01
   1.643883e-04    3.457279e+06    1.915668e+00    3.457277e+06    0.000000e+00    1.094141e+05    0.000000e+00   -7.449015e+00    6.579422e+00    1.288538e+01
   1.653640e-04    3.426705e+06    2.381230e+00    3.426703e+06    0.000000e+00    1.087681e+05    0.000000e+00   -8.601136e+00    6.579388e+00    1.288521e+01
   1.663454e-04    3.396401e+06    1.927695e+00    3.396399e+06    0.000000e+00    1.081259e+05    0.000000e+00   -7.479812e+00    6.579353e+00    1.288503e+01
   1.673327e-04    3.366363e+06    6.044766e-01    3.366362e+06    0.000000e+00    1.074875e+05    0.000000e+00   -3.488665e+00    6.579318e+00    1.288486e+01
   1.683258e-04    3.336593e+06    1.294020e+00    3.336592e+06    0.000000e+00    1.068528e+05    0.000000e+00   -5.750036e+00    6.579283e+00    1.288468e+01
   1.693248e-04    3.307086e+06    2.177424e+00    3.307084e+06    0.000000e+00    1.062219e+05    0.000000e+00   -8.106958e+00    6.579247e+00    1.288450e+01
   1.703297e-04    3.277840e+06    2.165195e+00    3.277838e+06    0.000000e+00    1.055947e+05    0.000000e+00   -8.076845e+00    6.579212e+00    1.288433e+01
   1.713406e-04    3.248851e+06    1.307588e+00    3.248849e+06    0.000000e+00    1.049713e+05    0.000000e+00   -5.789791e+00    6.579176e+00    1.288415e+01
   1.723575e-04    3.220118e+06    5.142536e-01    3.220117e+06    0.000000e+00    1.043514e+05    0.000000e+00   -3.139097e+00    6.579140e+00    1.288397e+01
   1.733804e-04    3.191641e+06    1.783490e+00    3.191639e+06    0.000000e+00    1.037353e+05    0.000000e+00   -7.105304e+00    6.579103e+00    1.288379e+01
   1.744094e-04    3.163415e+06    2.182193e+00    3.163413e+06    0.000000e+00    1.031228e+05    0.000000e+00   -8.118656e+00    6.579067e+00    1.288360e+01
   1.754445e-04    3.135438e+06    1.763401e+00    3.135436e+06    0.000000e+00    1.025139e+05    0.000000e+00   -7.052313e+00    6.579030e+00    1.288342e+01
   1.764858e-04    3.107708e+06    5.163825e-01    3.107707e+06    0.000000e+00    1.019086e+05    0.000000e+00   -3.147604e+00    6.578993e+00    1.288324e+01
   1.775332e-04    3.080224e+06    1.213137e+00    3.080223e+06    0.000000e+00    1.013068e+05    0.000000e+00   -5.510762e+00    6.578956e+00    1.288305e+01
   1.785869e-04    3.052983e+06    2.001897e+00    3.052981e+06    0.000000e+00    1.007086e+05    0.000000e+00   -7.668612e+00    6.578919e+00    1.288286e+01
   1.796468e-04    3.025983e+06    1.985462e+00    3.025981e+06    0.000000e+00    1.001140e+05    0.000000e+00   -7.627198e+00    6.578881e+00    1.288268e+01
   1.807130e-04    2.999220e+06    1.168357e+00    2.999219e+06    0.000000e+00    9.952284e+04    0.000000e+00   -5.376071e+00    6.578843e+00    1.288249e+01
   1.817855e-04    2.972694e+06    4.989632e-01    2.972693e+06    0.000000e+00    9.893518e+04    0.000000e+00   -3.077912e+00    6.578805e+00    1.288230e+01
   1.828644e-04    2.946404e+06    1.645699e+00    2.946402e+06    0.000000e+00    9.835098e+04    0.000000e+00   -6.738075e+00    6.578767e+00    1.288211e+01
   1.839497e-04    2.920346e+06    2.009147e+00    2.920344e+06    0.000000e+00    9.777023e+04    0.000000e+00   -7.686881e+00    6.578729e+00    1.288191e+01
   1.850414e-04    2.894517e+06    1.593964e+00    2.894516e+06    0.000000e+00    9.719291e+04    0.000000e+00   -6.597538e+00    6.578690e+00    1.288172e+01
   1.861396e-04    2.868916e+06    4.284411e-01    2.868916e+06    0.000000e+00    9.661900e+04    0.000000e+00   -2.787123e+00    6.578651e+00    1.288153e+01
   1.872443e-04    2.843543e+06    1.137678e+00    2.843542e+06    0.000000e+00    9.604847e+04    0.000000e+00   -5.282669e+00    6.578612e+00    1.288133e+01
   1.883556e-04    2.818395e+06    1.852351e+00    2.818393e+06    0.000000e+00    9.548131e+04    0.000000e+00   -7.285443e+00    6.578572e+00    1.288113e+01
   1.894735e-04    2.793468e+06    1.812776e+00    2.793466e+06    0.000000e+00    9.491749e+04    0.000000e+00   -7.182195e+00    6.578533e+00    1.288094e+01
   1.905980e-04    2.768760e+06    1.044818e+00    2.768759e+06    0.000000e+00    9.435700e+04    0.000000e+00   -4.994695e+00    6.578493e+00    1.288074e+01
   1.917292e-04    2.744271e+06    4.883774e-01    2.744271e+06    0.000000e+00    9.379981e+04    0.000000e+00   -3.035209e+00    6.578453e+00    1.288054e+01
   1.928671e-04    2.720001e+06    1.531044e+00    2.719999e+06    0.000000e+00    9.324592e+04    0.000000e+00   -6.424495e+00    6.578412e+00    1.288033e+01
   1.940117e-04    2.695944e+06    1.845268e+00    2.695942e+06    0.000000e+00    9.269529e+04    0.000000e+00   -7.266979e+00    6.578372e+00    1.288013e+01
   1.951632e-04    2.672099e+06    1.445571e+00    2.672097e+06    0.000000e+00    9.214791e+04    0.000000e+00   -6.185690e+00    6.578331e+00    1.287993e+01
   1.963215e-04    2.648464e+06    3.476599e-01    2.648463e+06    0.000000e+00    9.160376e+04    0.000000e+00   -2.433490e+00    6.578290e+00    1.287972e+01
   1.974866e-04    2.625039e+06    1.071655e+00    2.625038e+06    0.000000e+00    9.106282e+04    0.000000e+00   -5.078840e+00    6.578248e+00    1.287952e+01
   1.986587e-04    2.601822e+06    1.708427e+00    2.601820e+06    0.000000e+00    9.052507e+04    0.000000e+00   -6.906394e+00    6.578207e+00    1.287931e+01
   1.998377e-04    2.578810e+06    1.654401e+00    2.578808e+06    0.000000e+00    8.999050e+04    0.000000e+00   -6.761470e+00    6.578165e+00    1.287910e+01
   2.010238e-04    2.556000e+06    9.252400e-01    2.555999e+06    0.000000e+00    8.945908e+04    0.000000e+00   -4.611259e+00    6.578123e+00    1.287889e+01
   2.022168e-04    2.533392e+06    4.832168e-01    2.533391e+06    0.000000e+00    8.893079e+04    0.000000e+00   -3.014226e+00    6.578081e+00    1.287868e+01
   2.034170e-04    2.510985e+06    1.421735e+00    2.510983e+06    0.000000e+00    8.840562e+04    0.000000e+00   -6.118021e+00    6.578038e+00    1.287846e+01
   2.046242e-04    2.488775e+06    1.693272e+00    2.488774e+06    0.000000e+00    8.788355e+04    0.000000e+00   -6.866039e+00    6.577995e+00    1.287825e+01
