# All units in Hartree [AU] if not specified
# Convergence: Err(φ)=4.153e-11, Err(n_e)=8.333e-11, Err(IET)=9.920e-13, Q_net=5.100e-07
# {"name":"Ar", "Z":18, "Zstar":0.33530341265086605, "A":39.948,  "μ[AU]": 2.6724038630e-03, "Te[AU]": 1.012e-03, "Ti[AU]": 1.012e-03, "rs[AU]": 1.372e+01 }
   r[AU]           U_ei[AU]        U_ii[AU]        g_ii            
   6.857824e-02   -2.112432e-01    2.945325e+00    0.000000e+00
   1.371565e-01   -1.721834e-01    1.300017e+00    0.000000e+00
   2.057347e-01   -1.520968e-01    8.279910e-01    0.000000e+00
   2.743130e-01   -1.390711e-01    5.520624e-01    0.000000e+00
   3.428912e-01   -1.297719e-01    4.212210e-01    0.000000e+00
   4.114694e-01   -1.225510e-01    3.187948e-01    0.000000e+00
   4.800477e-01   -1.167661e-01    2.622661e-01    0.000000e+00
   5.486259e-01   -1.119127e-01    2.115687e-01    0.000000e+00
   6.172042e-01   -1.085368e-01    1.816696e-01    0.000000e+00
   6.857824e-01   -1.048511e-01    1.524033e-01    0.000000e+00
   7.543606e-01   -1.016286e-01    1.345416e-01    0.000000e+00
   8.229389e-01   -9.882556e-02    1.158746e-01    0.000000e+00
   8.915171e-01   -9.627502e-02    1.042580e-01    0.000000e+00
   9.600953e-01   -9.395915e-02    9.146566e-02    0.000000e+00
   1.028674e+00   -9.182751e-02    8.340954e-02    0.000000e+00
   1.097252e+00   -8.988454e-02    7.415063e-02    0.000000e+00
   1.165830e+00   -8.811110e-02    6.827353e-02    0.000000e+00
   1.234408e+00   -8.641903e-02    6.127828e-02    0.000000e+00
   1.302987e+00   -8.486957e-02    5.681274e-02    0.000000e+00
   1.371565e+00   -8.341439e-02    5.134357e-02    0.000000e+00
   1.440143e+00   -8.205949e-02    4.783679e-02    0.000000e+00
   1.508721e+00   -8.075046e-02    4.344106e-02    0.000000e+00
   1.577299e+00   -7.953449e-02    4.061237e-02    0.000000e+00
   1.645878e+00   -7.837974e-02    3.699927e-02    0.000000e+00
   1.714456e+00   -7.727735e-02    3.466718e-02    0.000000e+00
   1.783034e+00   -7.622493e-02    3.164244e-02    0.000000e+00
   1.851612e+00   -7.522202e-02    2.968516e-02    0.000000e+00
   1.920191e+00   -7.426881e-02    2.711445e-02    0.000000e+00
   1.988769e+00   -7.334665e-02    2.544755e-02    0.000000e+00
   2.057347e+00   -7.246854e-02    2.323520e-02    0.000000e+00
   2.125925e+00   -7.161672e-02    2.179839e-02    0.000000e+00
   2.194504e+00   -7.080324e-02    1.987439e-02    0.000000e+00
   2.263082e+00   -7.001705e-02    1.862348e-02    0.000000e+00
   2.331660e+00   -6.925454e-02    1.693541e-02    0.000000e+00
   2.400238e+00   -6.851875e-02    1.583724e-02    0.000000e+00
   2.468817e+00   -6.780679e-02    1.434501e-02    0.000000e+00
   2.537395e+00   -6.711831e-02    1.337415e-02    0.000000e+00
   2.605973e+00   -6.644993e-02    1.204654e-02    0.000000e+00
   2.674551e+00   -6.580082e-02    1.118316e-02    0.000000e+00
   2.743130e+00   -6.516980e-02    9.995440e-03    0.000000e+00
   2.811708e+00   -6.455692e-02    9.223788e-03    0.000000e+00
   2.880286e+00   -6.396096e-02    8.156109e-03    4.341416e-12
   2.948864e+00   -6.337785e-02    7.463501e-03    1.177725e-11
   3.017443e+00   -6.280923e-02    6.499708e-03    3.617373e-11
   3.086021e+00   -6.225561e-02    5.875797e-03    7.189982e-11
   3.154599e+00   -6.171611e-02    5.002601e-03    1.805631e-10
   3.223177e+00   -6.118685e-02    4.438848e-03    3.290026e-10
   3.291755e+00   -6.067034e-02    3.645200e-03    7.513457e-10
   3.360334e+00   -6.016578e-02    3.134487e-03    1.294225e-09
   3.428912e+00   -5.967028e-02    2.411121e-03    2.751538e-09
   3.497490e+00   -5.918638e-02    1.947458e-03    4.525720e-09
   3.566068e+00   -5.871158e-02    1.286538e-03    9.051547e-09
   3.634647e+00   -5.824655e-02    8.648462e-04    1.429970e-08
   3.703225e+00   -5.778999e-02    2.596943e-04    2.709941e-08
   3.771803e+00   -5.734241e-02   -1.243680e-04    4.130504e-08
   3.840381e+00   -5.690248e-02   -6.794786e-04    7.460234e-08
   3.908960e+00   -5.647094e-02   -1.029646e-03    1.101172e-07
   3.977538e+00   -5.604613e-02   -1.539659e-03    1.904828e-07
   4.046116e+00   -5.562955e-02   -1.859164e-03    2.731533e-07
   4.114694e+00   -5.521902e-02   -2.328370e-03    4.544633e-07
   4.183273e+00   -5.481608e-02   -2.620028e-03    6.348943e-07
   4.251851e+00   -5.441907e-02   -3.052170e-03    1.019737e-06
   4.320429e+00   -5.402819e-02   -3.318443e-03    1.391215e-06
   4.389007e+00   -5.364373e-02   -3.716806e-03    2.164108e-06
   4.457586e+00   -5.326449e-02   -3.959860e-03    2.889425e-06
   4.526164e+00   -5.289138e-02   -4.327337e-03    4.365450e-06
   4.594742e+00   -5.252372e-02   -4.549085e-03    5.714821e-06
   4.663320e+00   -5.216060e-02   -4.888234e-03    8.407068e-06
   4.731898e+00   -5.180290e-02   -5.090374e-03    1.080889e-05
   4.800477e+00   -5.145057e-02   -5.403468e-03    1.551730e-05
   4.869055e+00   -5.110227e-02   -5.587512e-03    1.962263e-05
   4.937633e+00   -5.075860e-02   -5.876579e-03    2.754534e-05
   5.006211e+00   -5.041979e-02   -6.043879e-03    3.430578e-05
   5.074790e+00   -5.008528e-02   -6.310732e-03    4.717209e-05
   5.143368e+00   -4.975446e-02   -6.462503e-03    5.792894e-05
   5.211946e+00   -4.942800e-02   -6.708772e-03    7.815057e-05
   5.280524e+00   -4.910574e-02   -6.846105e-03    9.473171e-05
   5.349103e+00   -4.878700e-02   -7.073257e-03    1.255662e-04
   5.417681e+00   -4.847174e-02   -7.197142e-03    1.503851e-04
   5.486259e+00   -4.816065e-02   -7.406504e-03    1.961031e-04
   5.554837e+00   -4.785281e-02   -7.517834e-03    2.322532e-04
   5.623416e+00   -4.754849e-02   -7.710608e-03    2.982987e-04
   5.691994e+00   -4.724752e-02   -7.810199e-03    3.496351e-04
   5.760572e+00   -4.694954e-02   -7.987478e-03    4.427674e-04
   5.829150e+00   -4.665493e-02   -8.076071e-03    5.139679e-04
   5.897729e+00   -4.636357e-02   -8.238853e-03    6.423723e-04
   5.966307e+00   -4.607491e-02   -8.317128e-03    7.389699e-04
   6.034885e+00   -4.578944e-02   -8.466322e-03    9.123260e-04
   6.103463e+00   -4.550673e-02   -8.534901e-03    1.040706e-03
   6.172042e+00   -4.522658e-02   -8.671343e-03    1.270203e-03
   6.240620e+00   -4.494970e-02   -8.730799e-03    1.437561e-03
   6.309198e+00   -4.467521e-02   -8.855255e-03    1.735855e-03
   6.377776e+00   -4.440338e-02   -8.906116e-03    1.950108e-03
   6.446354e+00   -4.413412e-02   -9.019292e-03    2.331212e-03
   6.514933e+00   -4.386712e-02   -9.062045e-03    2.600876e-03
   6.583511e+00   -4.360289e-02   -9.164593e-03    3.079987e-03
   6.652089e+00   -4.334090e-02   -9.199691e-03    3.414002e-03
   6.720667e+00   -4.308134e-02   -9.292214e-03    4.007268e-03
   6.789246e+00   -4.282404e-02   -9.320076e-03    4.414799e-03
   6.857824e+00   -4.256881e-02   -9.403133e-03    5.139031e-03
   6.926402e+00   -4.231611e-02   -9.424149e-03    5.629232e-03
   6.994980e+00   -4.206520e-02   -9.498259e-03    6.501569e-03
   7.063559e+00   -4.181676e-02   -9.512794e-03    7.083337e-03
   7.132137e+00   -4.157017e-02   -9.578440e-03    8.120880e-03
   7.200715e+00   -4.132574e-02   -9.586834e-03    8.802596e-03
   7.269293e+00   -4.108328e-02   -9.644467e-03    1.002202e-02
   7.337872e+00   -4.084274e-02   -9.647040e-03    1.081129e-02
   7.406450e+00   -4.060414e-02   -9.697082e-03    1.222848e-02
   7.475028e+00   -4.036741e-02   -9.694132e-03    1.313189e-02
   7.543606e+00   -4.013257e-02   -9.736976e-03    1.476151e-02
   7.612185e+00   -3.989954e-02   -9.728785e-03    1.578442e-02
   7.680763e+00   -3.966833e-02   -9.764802e-03    1.763963e-02
   7.749341e+00   -3.943887e-02   -9.751635e-03    1.878597e-02
   7.817919e+00   -3.921114e-02   -9.781174e-03    2.087805e-02
   7.886497e+00   -3.898508e-02   -9.763281e-03    2.215015e-02
   7.955076e+00   -3.876074e-02   -9.786667e-03    2.448828e-02
   8.023654e+00   -3.853800e-02   -9.764285e-03    2.588681e-02
   8.092232e+00   -3.831699e-02   -9.781828e-03    2.847783e-02
   8.160810e+00   -3.809749e-02   -9.755182e-03    3.000169e-02
   8.229389e+00   -3.787966e-02   -9.767172e-03    3.284996e-02
   8.297967e+00   -3.766327e-02   -9.736474e-03    3.449628e-02
   8.366545e+00   -3.744852e-02   -9.743188e-03    3.760357e-02
   8.435123e+00   -3.723520e-02   -9.708639e-03    3.936776e-02
   8.503702e+00   -3.702341e-02   -9.710338e-03    4.273324e-02
   8.572280e+00   -3.681308e-02   -9.672132e-03    4.460902e-02
   8.640858e+00   -3.660415e-02   -9.669063e-03    4.822930e-02
   8.709436e+00   -3.639674e-02   -9.627383e-03    5.020886e-02
   8.778015e+00   -3.619072e-02   -9.619781e-03    5.407807e-02
   8.846593e+00   -3.598603e-02   -9.574801e-03    5.615215e-02
   8.915171e+00   -3.578278e-02   -9.562891e-03    6.026208e-02
   8.983749e+00   -3.558086e-02   -9.514779e-03    6.242023e-02
   9.052328e+00   -3.538030e-02   -9.498774e-03    6.676051e-02
   9.120906e+00   -3.518099e-02   -9.447689e-03    6.899119e-02
   9.189484e+00   -3.498316e-02   -9.427792e-03    7.354954e-02
   9.258062e+00   -3.478651e-02   -9.373889e-03    7.584040e-02
   9.326640e+00   -3.459116e-02   -9.350293e-03    8.060281e-02
   9.395219e+00   -3.439697e-02   -9.293719e-03    8.294089e-02
   9.463797e+00   -3.420430e-02   -9.266610e-03    8.789194e-02
   9.532375e+00   -3.401271e-02   -9.207506e-03    9.026389e-02
   9.600953e+00   -3.382240e-02   -9.177062e-03    9.538702e-02
   9.669532e+00   -3.363310e-02   -9.115564e-03    9.777927e-02
   9.738110e+00   -3.344534e-02   -9.081955e-03    1.030571e-01
   9.806688e+00   -3.325864e-02   -9.018194e-03    1.054561e-01
   9.875266e+00   -3.307317e-02   -8.981583e-03    1.108705e-01
   9.943845e+00   -3.288877e-02   -8.915684e-03    1.132631e-01
   1.001242e+01   -3.270562e-02   -8.876229e-03    1.187957e-01
   1.008100e+01   -3.252356e-02   -8.808314e-03    1.211689e-01
   1.014958e+01   -3.234271e-02   -8.766164e-03    1.268014e-01
   1.021816e+01   -3.216309e-02   -8.696351e-03    1.291428e-01
   1.028674e+01   -3.198450e-02   -8.651651e-03    1.348570e-01
   1.035531e+01   -3.180711e-02   -8.580053e-03    1.371550e-01
   1.042389e+01   -3.163075e-02   -8.532942e-03    1.429329e-01
   1.049247e+01   -3.145557e-02   -8.459668e-03    1.451768e-01
   1.056105e+01   -3.128142e-02   -8.410281e-03    1.510011e-01
   1.062963e+01   -3.110842e-02   -8.335438e-03    1.531808e-01
   1.069821e+01   -3.093653e-02   -8.283904e-03    1.590349e-01
   1.076678e+01   -3.076566e-02   -8.207594e-03    1.611417e-01
   1.083536e+01   -3.059607e-02   -8.154037e-03    1.670099e-01
   1.090394e+01   -3.042743e-02   -8.076360e-03    1.690358e-01
   1.097252e+01   -3.025990e-02   -8.020902e-03    1.749035e-01
   1.104110e+01   -3.009344e-02   -7.941954e-03    1.768415e-01
   1.110967e+01   -2.992801e-02   -7.884710e-03    1.826950e-01
   1.117825e+01   -2.976372e-02   -7.804584e-03    1.845396e-01
   1.124683e+01   -2.960041e-02   -7.745667e-03    1.903664e-01
   1.131541e+01   -2.943821e-02   -7.664454e-03    1.921129e-01
   1.138399e+01   -2.927708e-02   -7.603972e-03    1.979017e-01
   1.145257e+01   -2.911696e-02   -7.521760e-03    1.995465e-01
   1.152114e+01   -2.895795e-02   -7.459820e-03    2.052871e-01
   1.158972e+01   -2.879996e-02   -7.376694e-03    2.068276e-01
   1.165830e+01   -2.864302e-02   -7.313397e-03    2.125112e-01
   1.172688e+01   -2.848718e-02   -7.229440e-03    2.139459e-01
   1.179546e+01   -2.833234e-02   -7.164884e-03    2.195648e-01
   1.186404e+01   -2.817857e-02   -7.080178e-03    2.208931e-01
   1.193261e+01   -2.802591e-02   -7.014459e-03    2.264408e-01
   1.200119e+01   -2.787425e-02   -6.929080e-03    2.276629e-01
   1.206977e+01   -2.772365e-02   -6.862291e-03    2.331341e-01
   1.213835e+01   -2.757417e-02   -6.776316e-03    2.342511e-01
   1.220693e+01   -2.742573e-02   -6.708547e-03    2.396415e-01
   1.227550e+01   -2.727833e-02   -6.622050e-03    2.406553e-01
   1.234408e+01   -2.713204e-02   -6.553387e-03    2.459616e-01
   1.241266e+01   -2.698686e-02   -6.466441e-03    2.468747e-01
   1.248124e+01   -2.684271e-02   -6.396968e-03    2.520948e-01
   1.254982e+01   -2.669962e-02   -6.309642e-03    2.529103e-01
   1.261840e+01   -2.655784e-02   -6.239443e-03    2.580430e-01
   1.268697e+01   -2.641715e-02   -6.151805e-03    2.587646e-01
   1.275555e+01   -2.627755e-02   -6.080957e-03    2.638093e-01
   1.282413e+01   -2.613905e-02   -5.993074e-03    2.644413e-01
   1.289271e+01   -2.600172e-02   -5.921655e-03    2.693984e-01
   1.296129e+01   -2.586558e-02   -5.833591e-03    2.699453e-01
   1.302987e+01   -2.573058e-02   -5.761676e-03    2.748159e-01
   1.309844e+01   -2.559674e-02   -5.673493e-03    2.752827e-01
   1.316702e+01   -2.546405e-02   -5.601155e-03    2.800685e-01
   1.323560e+01   -2.533256e-02   -5.512915e-03    2.804605e-01
   1.330418e+01   -2.520241e-02   -5.440223e-03    2.851639e-01
   1.337276e+01   -2.507347e-02   -5.351984e-03    2.854865e-01
   1.344133e+01   -2.494575e-02   -5.279008e-03    2.901102e-01
   1.350991e+01   -2.481924e-02   -5.190828e-03    2.903691e-01
   1.357849e+01   -2.469392e-02   -5.117633e-03    2.949166e-01
   1.364707e+01   -2.456978e-02   -5.029568e-03    2.951176e-01
   1.371565e+01   -2.444678e-02   -4.956219e-03    2.995925e-01
   1.378423e+01   -2.432515e-02   -4.868324e-03    2.997415e-01
   1.385280e+01   -2.420473e-02   -4.794883e-03    3.041479e-01
   1.392138e+01   -2.408550e-02   -4.707210e-03    3.042510e-01
   1.398996e+01   -2.396743e-02   -4.633738e-03    3.085932e-01
   1.405854e+01   -2.385052e-02   -4.546339e-03    3.086563e-01
   1.412712e+01   -2.373474e-02   -4.472894e-03    3.129390e-01
   1.419570e+01   -2.362008e-02   -4.385818e-03    3.129680e-01
   1.426427e+01   -2.350652e-02   -4.312458e-03    3.171961e-01
   1.433285e+01   -2.339405e-02   -4.225754e-03    3.171970e-01
   1.440143e+01   -2.328265e-02   -4.152533e-03    3.213754e-01
   1.447001e+01   -2.317230e-02   -4.066248e-03    3.213542e-01
   1.453859e+01   -2.306300e-02   -3.993220e-03    3.254880e-01
   1.460716e+01   -2.295472e-02   -3.907400e-03    3.254504e-01
   1.467574e+01   -2.284746e-02   -3.834617e-03    3.295449e-01
   1.474432e+01   -2.274119e-02   -3.749305e-03    3.294966e-01
   1.481290e+01   -2.263591e-02   -3.676817e-03    3.335571e-01
   1.488148e+01   -2.253159e-02   -3.592056e-03    3.335037e-01
   1.495006e+01   -2.242824e-02   -3.519912e-03    3.375357e-01
   1.501863e+01   -2.232583e-02   -3.435744e-03    3.374827e-01
   1.508721e+01   -2.222434e-02   -3.363990e-03    3.414913e-01
   1.515579e+01   -2.212378e-02   -3.280455e-03    3.414441e-01
   1.522437e+01   -2.202413e-02   -3.209137e-03    3.454349e-01
   1.529295e+01   -2.192536e-02   -3.126274e-03    3.453986e-01
   1.536153e+01   -2.182748e-02   -3.055436e-03    3.493769e-01
   1.543010e+01   -2.173047e-02   -2.973282e-03    3.493566e-01
   1.549868e+01   -2.163432e-02   -2.902966e-03    3.533278e-01
   1.556726e+01   -2.153901e-02   -2.821558e-03    3.533284e-01
   1.563584e+01   -2.144454e-02   -2.751805e-03    3.572979e-01
   1.570442e+01   -2.135090e-02   -2.671178e-03    3.573241e-01
   1.577299e+01   -2.125807e-02   -2.602028e-03    3.612971e-01
   1.584157e+01   -2.116604e-02   -2.522214e-03    3.613536e-01
   1.591015e+01   -2.107481e-02   -2.453706e-03    3.653352e-01
   1.597873e+01   -2.098436e-02   -2.374739e-03    3.654266e-01
   1.604731e+01   -2.089468e-02   -2.306909e-03    3.694220e-01
   1.611589e+01   -2.080577e-02   -2.228820e-03    3.695525e-01
   1.618446e+01   -2.071761e-02   -2.161702e-03    3.735668e-01
   1.625304e+01   -2.063019e-02   -2.084521e-03    3.737406e-01
   1.632162e+01   -2.054351e-02   -2.018151e-03    3.777788e-01
   1.639020e+01   -2.045756e-02   -1.941908e-03    3.780000e-01
   1.645878e+01   -2.037232e-02   -1.876317e-03    3.820670e-01
   1.652736e+01   -2.028778e-02   -1.801038e-03    3.823394e-01
   1.659593e+01   -2.020395e-02   -1.736260e-03    3.864401e-01
   1.666451e+01   -2.012081e-02   -1.661972e-03    3.867676e-01
   1.673309e+01   -2.003834e-02   -1.598035e-03    3.909067e-01
   1.680167e+01   -1.995655e-02   -1.524764e-03    3.912930e-01
   1.687025e+01   -1.987543e-02   -1.461697e-03    3.954750e-01
   1.693883e+01   -1.979496e-02   -1.389467e-03    3.959237e-01
   1.700740e+01   -1.971514e-02   -1.327298e-03    4.001534e-01
   1.707598e+01   -1.963597e-02   -1.256133e-03    4.006677e-01
   1.714456e+01   -1.955742e-02   -1.194888e-03    4.049496e-01
   1.721314e+01   -1.947951e-02   -1.124809e-03    4.055330e-01
   1.728172e+01   -1.940221e-02   -1.064514e-03    4.098713e-01
   1.735029e+01   -1.932552e-02   -9.955422e-04    4.105270e-01
   1.741887e+01   -1.924943e-02   -9.362203e-04    4.149262e-01
   1.748745e+01   -1.917394e-02   -8.683761e-04    4.156572e-01
   1.755603e+01   -1.909905e-02   -8.100504e-04    4.201215e-01
   1.762461e+01   -1.902473e-02   -7.433524e-04    4.209308e-01
   1.769319e+01   -1.895099e-02   -6.860445e-04    4.254644e-01
   1.776176e+01   -1.887782e-02   -6.205106e-04    4.263549e-01
   1.783034e+01   -1.880521e-02   -5.642409e-04    4.309618e-01
   1.789892e+01   -1.873316e-02   -4.998878e-04    4.319364e-01
   1.796750e+01   -1.866166e-02   -4.446757e-04    4.366205e-01
   1.803608e+01   -1.859071e-02   -3.815192e-04    4.376818e-01
   1.810466e+01   -1.852029e-02   -3.273828e-04    4.424470e-01
   1.817323e+01   -1.845040e-02   -2.654377e-04    4.435977e-01
   1.824181e+01   -1.838104e-02   -2.123943e-04    4.484478e-01
   1.831039e+01   -1.831219e-02   -1.516742e-04    4.496904e-01
   1.837897e+01   -1.824387e-02   -9.973970e-05    4.546291e-01
   1.844755e+01   -1.817604e-02   -4.025747e-05    4.559660e-01
   1.851612e+01   -1.810873e-02    1.055310e-05    4.609969e-01
   1.858470e+01   -1.804190e-02    6.878574e-05    4.624304e-01
   1.865328e+01   -1.797557e-02    1.184584e-04    4.675570e-01
   1.872186e+01   -1.790973e-02    1.754307e-04    4.690894e-01
   1.879044e+01   -1.784436e-02    2.239526e-04    4.743151e-01
   1.885902e+01   -1.777948e-02    2.796546e-04    4.759486e-01
   1.892759e+01   -1.771506e-02    3.270139e-04    4.812766e-01
   1.899617e+01   -1.765110e-02    3.814367e-04    4.830131e-01
   1.906475e+01   -1.758761e-02    4.276224e-04    4.884467e-01
   1.913333e+01   -1.752457e-02    4.807580e-04    4.902883e-01
   1.920191e+01   -1.746199e-02    5.257604e-04    4.958305e-01
   1.927049e+01   -1.739984e-02    5.776017e-04    4.977790e-01
   1.933906e+01   -1.733814e-02    6.214117e-04    5.034328e-01
   1.940764e+01   -1.727688e-02    6.719525e-04    5.054899e-01
   1.947622e+01   -1.721604e-02    7.145622e-04    5.112581e-01
   1.954480e+01   -1.715563e-02    7.637972e-04    5.134254e-01
   1.961338e+01   -1.709565e-02    8.051995e-04    5.193107e-01
   1.968195e+01   -1.703608e-02    8.531243e-04    5.215899e-01
   1.975053e+01   -1.697693e-02    8.933132e-04    5.275948e-01
   1.981911e+01   -1.691819e-02    9.399242e-04    5.299871e-01
   1.988769e+01   -1.685985e-02    9.788944e-04    5.361142e-01
   1.995627e+01   -1.680191e-02    1.024189e-03    5.386210e-01
   2.002485e+01   -1.674437e-02    1.061936e-03    5.448724e-01
   2.009342e+01   -1.668722e-02    1.105912e-03    5.474947e-01
   2.016200e+01   -1.663046e-02    1.142433e-03    5.538726e-01
   2.023058e+01   -1.657409e-02    1.185089e-03    5.566114e-01
   2.029916e+01   -1.651809e-02    1.220381e-03    5.631177e-01
   2.036774e+01   -1.646248e-02    1.261718e-03    5.659739e-01
   2.043632e+01   -1.640723e-02    1.295779e-03    5.726103e-01
   2.050489e+01   -1.635236e-02    1.335796e-03    5.755847e-01
   2.057347e+01   -1.629785e-02    1.368626e-03    5.823527e-01
   2.064205e+01   -1.624371e-02    1.407324e-03    5.854456e-01
   2.071063e+01   -1.618992e-02    1.438922e-03    5.923468e-01
   2.077921e+01   -1.613649e-02    1.476305e-03    5.955586e-01
   2.084778e+01   -1.608341e-02    1.506672e-03    6.025939e-01
   2.091636e+01   -1.603067e-02    1.542742e-03    6.059248e-01
   2.098494e+01   -1.597829e-02    1.571879e-03    6.130952e-01
