# All units in Hartree [AU] if not specified
# Convergence: Err(φ)=3.970e-11, Err(n_e)=9.271e-11, Err(IET)=9.707e-13, Q_net=6.103e-07
# {"name":"Ar", "Z":18, "Zstar":0.6466615439557977, "A":39.948,  "μ[AU]": -4.2256398270e-02, "Te[AU]": 2.055e-02, "Ti[AU]": 2.055e-02, "rs[AU]": 1.372e+01 }
   r[AU]           n[AU]           nf[AU]          nb[AU]          n_ion[AU]       φtot[AU]        δVxc/δρ[Au]     U_ei[AU]        U_ii[AU]        g_ii            
   1.000000e-04    7.290094e+06   -1.719759e+00    7.290096e+06    0.000000e+00    1.799173e+05    0.000000e+00    1.124097e+00    1.760069e+01   -1.463956e-13
   1.005935e-04    7.225647e+06    1.997759e+00    7.225645e+06    0.000000e+00    1.788553e+05    0.000000e+00   -7.724202e+00    1.760063e+01   -1.463933e-13
   1.011905e-04    7.161765e+06    1.826648e+00    7.161764e+06    0.000000e+00    1.777996e+05    0.000000e+00   -7.284435e+00    1.760057e+01   -1.463910e-13
   1.017911e-04    7.098445e+06   -1.758940e+00    7.098447e+06    0.000000e+00    1.767501e+05    0.000000e+00    1.124097e+00    1.760051e+01   -1.463886e-13
   1.023952e-04    7.035692e+06    1.888044e+00    7.035690e+06    0.000000e+00    1.757068e+05    0.000000e+00   -7.443859e+00    1.760045e+01   -1.463862e-13
   1.030029e-04    6.973489e+06    1.747731e+00    6.973488e+06    0.000000e+00    1.746696e+05    0.000000e+00   -7.077146e+00    1.760039e+01   -1.463839e-13
   1.036142e-04    6.911833e+06   -1.794778e+00    6.911835e+06    0.000000e+00    1.736386e+05    0.000000e+00    1.124097e+00    1.760034e+01   -1.463815e-13
   1.042292e-04    6.850729e+06    1.782538e+00    6.850727e+06    0.000000e+00    1.726136e+05    0.000000e+00   -7.169035e+00    1.760028e+01   -1.463791e-13
   1.048478e-04    6.790161e+06    1.667465e+00    6.790160e+06    0.000000e+00    1.715948e+05    0.000000e+00   -6.862782e+00    1.760021e+01   -1.463766e-13
   1.054700e-04    6.730126e+06   -1.827421e+00    6.730127e+06    0.000000e+00    1.705819e+05    0.000000e+00    1.124097e+00    1.760015e+01   -1.463742e-13
   1.060960e-04    6.670627e+06    1.673975e+00    6.670626e+06    0.000000e+00    1.695750e+05    0.000000e+00   -6.880381e+00    1.760009e+01   -1.463717e-13
   1.067257e-04    6.611651e+06    1.591934e+00    6.611650e+06    0.000000e+00    1.685740e+05    0.000000e+00   -6.658108e+00    1.760003e+01   -1.463693e-13
   1.073591e-04    6.553193e+06   -1.857099e+00    6.553195e+06    0.000000e+00    1.675789e+05    0.000000e+00    1.124097e+00    1.759997e+01   -1.463668e-13
   1.079962e-04    6.495259e+06    1.581596e+00    6.495257e+06    0.000000e+00    1.665897e+05    0.000000e+00   -6.629876e+00    1.759991e+01   -1.463643e-13
   1.086372e-04    6.437833e+06    1.521240e+00    6.437832e+06    0.000000e+00    1.656064e+05    0.000000e+00   -6.463427e+00    1.759985e+01   -1.463618e-13
   1.092819e-04    6.380911e+06   -1.883765e+00    6.380913e+06    0.000000e+00    1.646288e+05    0.000000e+00    1.124097e+00    1.759978e+01   -1.463593e-13
   1.099305e-04    6.324499e+06    1.486448e+00    6.324498e+06    0.000000e+00    1.636570e+05    0.000000e+00   -6.366644e+00    1.759972e+01   -1.463567e-13
   1.105830e-04    6.268583e+06    1.445863e+00    6.268581e+06    0.000000e+00    1.626910e+05    0.000000e+00   -6.252652e+00    1.759966e+01   -1.463542e-13
   1.112393e-04    6.213157e+06   -1.908021e+00    6.213159e+06    0.000000e+00    1.617306e+05    0.000000e+00    1.124097e+00    1.759959e+01   -1.463516e-13
   1.118995e-04    6.158228e+06    1.388680e+00    6.158226e+06    0.000000e+00    1.607760e+05    0.000000e+00   -6.090186e+00    1.759953e+01   -1.463490e-13
   1.125636e-04    6.103781e+06    1.377959e+00    6.103779e+06    0.000000e+00    1.598269e+05    0.000000e+00   -6.059275e+00    1.759946e+01   -1.463464e-13
   1.132316e-04    6.049812e+06   -1.875849e+00    6.049813e+06    0.000000e+00    1.588834e+05    0.000000e+00    1.124097e+00    1.759940e+01   -1.463438e-13
   1.139037e-04    5.996326e+06    1.305839e+00    5.996325e+06    0.000000e+00    1.579456e+05    0.000000e+00   -5.850877e+00    1.759933e+01   -1.463412e-13
   1.145797e-04    5.943310e+06    1.308726e+00    5.943308e+06    0.000000e+00    1.570132e+05    0.000000e+00   -5.859327e+00    1.759927e+01   -1.463385e-13
   1.152597e-04    5.890759e+06   -1.841470e+00    5.890761e+06    0.000000e+00    1.560864e+05    0.000000e+00    1.124097e+00    1.759920e+01   -1.463359e-13
   1.159437e-04    5.838679e+06    1.220287e+00    5.838678e+06    0.000000e+00    1.551650e+05    0.000000e+00   -5.598235e+00    1.759913e+01   -1.463332e-13
   1.166319e-04    5.787056e+06    1.240936e+00    5.787055e+06    0.000000e+00    1.542490e+05    0.000000e+00   -5.659829e+00    1.759907e+01   -1.463305e-13
   1.173241e-04    5.735887e+06   -1.808996e+00    5.735889e+06    0.000000e+00    1.533385e+05    0.000000e+00    1.124097e+00    1.759900e+01   -1.463278e-13
   1.180204e-04    5.685175e+06    1.137910e+00    5.685174e+06    0.000000e+00    1.524333e+05    0.000000e+00   -5.349419e+00    1.759893e+01   -1.463250e-13
   1.187208e-04    5.634909e+06    1.174843e+00    5.634908e+06    0.000000e+00    1.515335e+05    0.000000e+00   -5.461657e+00    1.759886e+01   -1.463223e-13
   1.194254e-04    5.585085e+06   -1.786804e+00    5.585086e+06    0.000000e+00    1.506389e+05    0.000000e+00    1.124097e+00    1.759879e+01   -1.463195e-13
   1.201342e-04    5.535706e+06    1.053148e+00    5.535705e+06    0.000000e+00    1.497497e+05    0.000000e+00   -5.087220e+00    1.759872e+01   -1.463168e-13
   1.208472e-04    5.486761e+06    1.105089e+00    5.486760e+06    0.000000e+00    1.488657e+05    0.000000e+00   -5.248579e+00    1.759865e+01   -1.463140e-13
   1.215644e-04    5.438246e+06   -1.750728e+00    5.438248e+06    0.000000e+00    1.479869e+05    0.000000e+00    1.124097e+00    1.759858e+01   -1.463112e-13
   1.222859e-04    5.390165e+06    9.819515e-01    5.390164e+06    0.000000e+00    1.471133e+05    0.000000e+00   -4.861251e+00    1.759851e+01   -1.463083e-13
   1.230117e-04    5.342507e+06    1.047185e+00    5.342506e+06    0.000000e+00    1.462449e+05    0.000000e+00   -5.068430e+00    1.759844e+01   -1.463055e-13
   1.237417e-04    5.295266e+06   -1.731753e+00    5.295268e+06    0.000000e+00    1.453816e+05    0.000000e+00    1.124097e+00    1.759837e+01   -1.463026e-13
   1.244761e-04    5.248449e+06    9.080802e-01    5.248448e+06    0.000000e+00    1.445233e+05    0.000000e+00   -4.621156e+00    1.759830e+01   -1.462998e-13
   1.252149e-04    5.202043e+06    9.781089e-01    5.202042e+06    0.000000e+00    1.436702e+05    0.000000e+00   -4.848803e+00    1.759823e+01   -1.462969e-13
   1.259580e-04    5.156045e+06   -1.699811e+00    5.156046e+06    0.000000e+00    1.428220e+05    0.000000e+00    1.124097e+00    1.759816e+01   -1.462939e-13
   1.267056e-04    5.110458e+06    8.323421e-01    5.110457e+06    0.000000e+00    1.419789e+05    0.000000e+00   -4.367931e+00    1.759808e+01   -1.462910e-13
   1.274576e-04    5.065272e+06    9.253919e-01    5.065271e+06    0.000000e+00    1.411408e+05    0.000000e+00   -4.677970e+00    1.759801e+01   -1.462881e-13
   1.282140e-04    5.020482e+06   -1.677240e+00    5.020484e+06    0.000000e+00    1.403076e+05    0.000000e+00    1.124097e+00    1.759794e+01   -1.462851e-13
   1.289750e-04    4.976093e+06    7.688698e-01    4.976092e+06    0.000000e+00    1.394793e+05    0.000000e+00   -4.149884e+00    1.759786e+01   -1.462821e-13
   1.297404e-04    4.932095e+06    8.666726e-01    4.932094e+06    0.000000e+00    1.386559e+05    0.000000e+00   -4.483570e+00    1.759779e+01   -1.462791e-13
   1.305104e-04    4.888482e+06   -1.656022e+00    4.888484e+06    0.000000e+00    1.378373e+05    0.000000e+00    1.124097e+00    1.759771e+01   -1.462761e-13
   1.312850e-04    4.845260e+06    7.031744e-01    4.845259e+06    0.000000e+00    1.370236e+05    0.000000e+00   -3.917735e+00    1.759764e+01   -1.462731e-13
   1.320642e-04    4.802418e+06    8.095012e-01    4.802417e+06    0.000000e+00    1.362147e+05    0.000000e+00   -4.290030e+00    1.759756e+01   -1.462700e-13
   1.328480e-04    4.759951e+06   -1.642932e+00    4.759953e+06    0.000000e+00    1.354105e+05    0.000000e+00    1.124097e+00    1.759748e+01   -1.462670e-13
   1.336364e-04    4.717865e+06    6.353014e-01    4.717865e+06    0.000000e+00    1.346111e+05    0.000000e+00   -3.670034e+00    1.759741e+01   -1.462639e-13
   1.344295e-04    4.676149e+06    7.536998e-01    4.676148e+06    0.000000e+00    1.338165e+05    0.000000e+00   -4.096895e+00    1.759733e+01   -1.462608e-13
   1.352274e-04    4.634799e+06   -1.624662e+00    4.634801e+06    0.000000e+00    1.330265e+05    0.000000e+00    1.124097e+00    1.759725e+01   -1.462577e-13
   1.360299e-04    4.593819e+06    5.745877e-01    4.593818e+06    0.000000e+00    1.322411e+05    0.000000e+00   -3.440909e+00    1.759717e+01   -1.462545e-13
   1.368372e-04    4.553199e+06    6.951200e-01    4.553198e+06    0.000000e+00    1.314604e+05    0.000000e+00   -3.888622e+00    1.759710e+01   -1.462513e-13
   1.376494e-04    4.512936e+06   -1.601360e+00    4.512937e+06    0.000000e+00    1.306843e+05    0.000000e+00    1.124097e+00    1.759702e+01   -1.462482e-13
   1.384663e-04    4.473033e+06    5.162040e-01    4.473032e+06    0.000000e+00    1.299128e+05    0.000000e+00   -3.213001e+00    1.759694e+01   -1.462450e-13
   1.392881e-04    4.433480e+06    6.463465e-01    4.433480e+06    0.000000e+00    1.291459e+05    0.000000e+00   -3.710962e+00    1.759686e+01   -1.462418e-13
   1.401148e-04    4.394275e+06   -1.591689e+00    4.394277e+06    0.000000e+00    1.283834e+05    0.000000e+00    1.124097e+00    1.759678e+01   -1.462385e-13
   1.409463e-04    4.355421e+06    4.643261e-01    4.355421e+06    0.000000e+00    1.276255e+05    0.000000e+00   -3.002937e+00    1.759669e+01   -1.462353e-13
   1.417828e-04    4.316908e+06    5.885949e-01    4.316908e+06    0.000000e+00    1.268720e+05    0.000000e+00   -3.494550e+00    1.759661e+01   -1.462320e-13
   1.426243e-04    4.278734e+06   -1.571030e+00    4.278735e+06    0.000000e+00    1.261230e+05    0.000000e+00    1.124097e+00    1.759653e+01   -1.462287e-13
   1.434708e-04    4.240901e+06    4.104366e-01    4.240900e+06    0.000000e+00    1.253784e+05    0.000000e+00   -2.776387e+00    1.759645e+01   -1.462254e-13
   1.443223e-04    4.203400e+06    5.443693e-01    4.203400e+06    0.000000e+00    1.246382e+05    0.000000e+00   -3.323964e+00    1.759637e+01   -1.462220e-13
   1.451788e-04    4.166229e+06   -1.557827e+00    4.166230e+06    0.000000e+00    1.239023e+05    0.000000e+00    1.124097e+00    1.759628e+01   -1.462187e-13
   1.460404e-04    4.129390e+06    3.585552e-01    4.129390e+06    0.000000e+00    1.231708e+05    0.000000e+00   -2.548712e+00    1.759620e+01   -1.462153e-13
   1.469072e-04    4.092875e+06    4.955052e-01    4.092875e+06    0.000000e+00    1.224437e+05    0.000000e+00   -3.130045e+00    1.759611e+01   -1.462119e-13
   1.477791e-04    4.056681e+06   -1.545518e+00    4.056682e+06    0.000000e+00    1.217208e+05    0.000000e+00    1.124097e+00    1.759603e+01   -1.462085e-13
   1.486561e-04    4.020810e+06    3.087114e-01    4.020810e+06    0.000000e+00    1.210021e+05    0.000000e+00   -2.319258e+00    1.759594e+01   -1.462051e-13
   1.495384e-04    3.985255e+06    4.477144e-01    3.985255e+06    0.000000e+00    1.202877e+05    0.000000e+00   -2.934083e+00    1.759586e+01   -1.462016e-13
   1.504259e-04    3.950012e+06   -1.534311e+00    3.950014e+06    0.000000e+00    1.195776e+05    0.000000e+00    1.124097e+00    1.759577e+01   -1.461981e-13
   1.513187e-04    3.915084e+06    2.554433e-01    3.915084e+06    0.000000e+00    1.188716e+05    0.000000e+00   -2.059971e+00    1.759568e+01   -1.461947e-13
   1.522167e-04    3.880464e+06    4.015129e-01    3.880463e+06    0.000000e+00    1.181698e+05    0.000000e+00   -2.738014e+00    1.759560e+01   -1.461911e-13
   1.531201e-04    3.846147e+06   -1.529269e+00    3.846148e+06    0.000000e+00    1.174721e+05    0.000000e+00    1.124097e+00    1.759551e+01   -1.461876e-13
   1.540289e-04    3.812137e+06    2.135051e-01    3.812137e+06    0.000000e+00    1.167785e+05    0.000000e+00   -1.842838e+00    1.759542e+01   -1.461840e-13
   1.549430e-04    3.778426e+06    3.563092e-01    3.778426e+06    0.000000e+00    1.160891e+05    0.000000e+00   -2.538651e+00    1.759533e+01   -1.461805e-13
   1.558626e-04    3.745012e+06   -1.519507e+00    3.745013e+06    0.000000e+00    1.154037e+05    0.000000e+00    1.124097e+00    1.759524e+01   -1.461769e-13
   1.567877e-04    3.711896e+06    1.659534e-01    3.711896e+06    0.000000e+00    1.147223e+05    0.000000e+00   -1.578453e+00    1.759515e+01   -1.461732e-13
   1.577182e-04    3.679071e+06    3.124906e-01    3.679071e+06    0.000000e+00    1.140450e+05    0.000000e+00   -2.337154e+00    1.759506e+01   -1.461696e-13
   1.586542e-04    3.646535e+06   -1.510868e+00    3.646536e+06    0.000000e+00    1.133716e+05    0.000000e+00    1.124097e+00    1.759497e+01   -1.461659e-13
   1.595958e-04    3.614289e+06    1.292142e-01    3.614289e+06    0.000000e+00    1.127022e+05    0.000000e+00   -1.356369e+00    1.759488e+01   -1.461622e-13
   1.605430e-04    3.582327e+06    2.665053e-01    3.582327e+06    0.000000e+00    1.120368e+05    0.000000e+00   -2.115234e+00    1.759478e+01   -1.461585e-13
   1.614958e-04    3.550646e+06   -1.497828e+00    3.550647e+06    0.000000e+00    1.113753e+05    0.000000e+00    1.124097e+00    1.759469e+01   -1.461548e-13
   1.624543e-04    3.519248e+06    8.875898e-02    3.519248e+06    0.000000e+00    1.107177e+05    0.000000e+00   -1.085406e+00    1.759460e+01   -1.461511e-13
   1.634185e-04    3.488126e+06    2.283161e-01    3.488126e+06    0.000000e+00    1.100640e+05    0.000000e+00   -1.921056e+00    1.759450e+01   -1.461473e-13
   1.643883e-04    3.457277e+06   -1.490690e+00    3.457279e+06    0.000000e+00    1.094142e+05    0.000000e+00    1.124097e+00    1.759441e+01   -1.461435e-13
   1.653640e-04    3.426704e+06    5.017889e-02    3.426704e+06    0.000000e+00    1.087682e+05    0.000000e+00   -7.840820e-01    1.759431e+01   -1.461397e-13
   1.663454e-04    3.396401e+06    1.879449e-01    3.396400e+06    0.000000e+00    1.081259e+05    0.000000e+00   -1.703476e+00    1.759422e+01   -1.461358e-13
   1.673327e-04    3.366363e+06   -1.484027e+00    3.366364e+06    0.000000e+00    1.074875e+05    0.000000e+00    1.124097e+00    1.759412e+01   -1.461320e-13
   1.683258e-04    3.336594e+06    1.316136e-02    3.336594e+06    0.000000e+00    1.068529e+05    0.000000e+00   -3.990124e-01    1.759402e+01   -1.461281e-13
   1.693248e-04    3.307086e+06    1.458392e-01    3.307086e+06    0.000000e+00    1.062220e+05    0.000000e+00   -1.459197e+00    1.759393e+01   -1.461242e-13
   1.703297e-04    3.277838e+06   -1.478136e+00    3.277839e+06    0.000000e+00    1.055948e+05    0.000000e+00    1.124097e+00    1.759383e+01   -1.461202e-13
   1.713406e-04    3.248851e+06   -2.690912e-02    3.248851e+06    0.000000e+00    1.049713e+05    0.000000e+00    1.124097e+00    1.759373e+01   -1.461163e-13
   1.723575e-04    3.220119e+06    1.107149e-01    3.220119e+06    0.000000e+00    1.043515e+05    0.000000e+00   -1.236612e+00    1.759363e+01   -1.461123e-13
   1.733804e-04    3.191640e+06   -1.472800e+00    3.191641e+06    0.000000e+00    1.037353e+05    0.000000e+00    1.124097e+00    1.759353e+01   -1.461083e-13
   1.744094e-04    3.163415e+06   -5.615439e-02    3.163415e+06    0.000000e+00    1.031228e+05    0.000000e+00    1.124097e+00    1.759343e+01   -1.461043e-13
   1.754445e-04    3.135438e+06    7.220847e-02    3.135438e+06    0.000000e+00    1.025139e+05    0.000000e+00   -9.629758e-01    1.759333e+01   -1.461002e-13
   1.764858e-04    3.107707e+06   -1.472370e+00    3.107709e+06    0.000000e+00    1.019086e+05    0.000000e+00    1.124097e+00    1.759323e+01   -1.460961e-13
   1.775332e-04    3.080224e+06   -8.989268e-02    3.080224e+06    0.000000e+00    1.013069e+05    0.000000e+00    1.124097e+00    1.759313e+01   -1.460920e-13
   1.785869e-04    3.052983e+06    3.636520e-02    3.052983e+06    0.000000e+00    1.007087e+05    0.000000e+00   -6.581695e-01    1.759302e+01   -1.460879e-13
   1.796468e-04    3.025981e+06   -1.463758e+00    3.025982e+06    0.000000e+00    1.001140e+05    0.000000e+00    1.124097e+00    1.759292e+01   -1.460838e-13
   1.807130e-04    2.999220e+06   -1.195045e-01    2.999220e+06    0.000000e+00    9.952288e+04    0.000000e+00    1.124097e+00    1.759282e+01   -1.460796e-13
   1.817855e-04    2.972695e+06    3.075520e-03    2.972695e+06    0.000000e+00    9.893521e+04    0.000000e+00   -2.310556e-01    1.759271e+01   -1.460754e-13
   1.828644e-04    2.946403e+06   -1.460037e+00    2.946404e+06    0.000000e+00    9.835102e+04    0.000000e+00    1.124097e+00    1.759261e+01   -1.460712e-13
   1.839497e-04    2.920345e+06   -1.490667e-01    2.920345e+06    0.000000e+00    9.777027e+04    0.000000e+00    1.124097e+00    1.759250e+01   -1.460669e-13
   1.850414e-04    2.894517e+06   -3.071309e-02    2.894517e+06    0.000000e+00    9.719295e+04    0.000000e+00    1.124097e+00    1.759239e+01   -1.460627e-13
   1.861396e-04    2.868916e+06   -1.456630e+00    2.868917e+06    0.000000e+00    9.661904e+04    0.000000e+00    1.124097e+00    1.759229e+01   -1.460584e-13
   1.872443e-04    2.843544e+06   -1.773926e-01    2.843544e+06    0.000000e+00    9.604851e+04    0.000000e+00    1.124097e+00    1.759218e+01   -1.460541e-13
   1.883556e-04    2.818394e+06   -6.354164e-02    2.818394e+06    0.000000e+00    9.548134e+04    0.000000e+00    1.124097e+00    1.759207e+01   -1.460497e-13
   1.894735e-04    2.793466e+06   -1.453748e+00    2.793467e+06    0.000000e+00    9.491753e+04    0.000000e+00    1.124097e+00    1.759196e+01   -1.460453e-13
   1.905980e-04    2.768761e+06   -2.043351e-01    2.768761e+06    0.000000e+00    9.435704e+04    0.000000e+00    1.124097e+00    1.759185e+01   -1.460409e-13
   1.917292e-04    2.744272e+06   -9.794142e-02    2.744272e+06    0.000000e+00    9.379985e+04    0.000000e+00    1.124097e+00    1.759174e+01   -1.460365e-13
   1.928671e-04    2.719999e+06   -1.451328e+00    2.720001e+06    0.000000e+00    9.324596e+04    0.000000e+00    1.124097e+00    1.759163e+01   -1.460321e-13
   1.940117e-04    2.695943e+06   -2.312687e-01    2.695943e+06    0.000000e+00    9.269533e+04    0.000000e+00    1.124097e+00    1.759152e+01   -1.460276e-13
   1.951632e-04    2.672099e+06   -1.262777e-01    2.672099e+06    0.000000e+00    9.214795e+04    0.000000e+00    1.124097e+00    1.759141e+01   -1.460231e-13
   1.963215e-04    2.648463e+06   -1.448969e+00    2.648465e+06    0.000000e+00    9.160380e+04    0.000000e+00    1.124097e+00    1.759129e+01   -1.460185e-13
   1.974866e-04    2.625040e+06   -2.546635e-01    2.625040e+06    0.000000e+00    9.106286e+04    0.000000e+00    1.124097e+00    1.759118e+01   -1.460140e-13
   1.986587e-04    2.601822e+06   -1.599646e-01    2.601822e+06    0.000000e+00    9.052511e+04    0.000000e+00    1.124097e+00    1.759107e+01   -1.460094e-13
   1.998377e-04    2.578808e+06   -1.450639e+00    2.578809e+06    0.000000e+00    8.999054e+04    0.000000e+00    1.124097e+00    1.759095e+01   -1.460048e-13
   2.010238e-04    2.556000e+06   -2.791545e-01    2.556000e+06    0.000000e+00    8.945912e+04    0.000000e+00    1.124097e+00    1.759084e+01   -1.460001e-13
   2.022168e-04    2.533393e+06   -1.865716e-01    2.533393e+06    0.000000e+00    8.893083e+04    0.000000e+00    1.124097e+00    1.759072e+01   -1.459955e-13
   2.034170e-04    2.510984e+06   -1.445507e+00    2.510985e+06    0.000000e+00    8.840566e+04    0.000000e+00    1.124097e+00    1.759060e+01   -1.459908e-13
   2.046242e-04    2.488775e+06   -3.014905e-01    2.488775e+06    0.000000e+00    8.788359e+04    0.000000e+00    1.124097e+00    1.759048e+01   -1.459861e-13
