# All units in Hartree [AU] if not specified
# Convergence: Err(φ)=3.847e-11, Err(n_e)=9.221e-11, Err(IET)=9.935e-13, Q_net=5.874e-07
# {"name":"Ar", "Z":18, "Zstar":0.33420695078933704, "A":39.948,  "μ[AU]": 2.3523945585e-03, "Te[AU]": 1.493e-03, "Ti[AU]": 1.493e-03, "rs[AU]": 1.372e+01 }
   r[AU]           U_ei[AU]        U_ii[AU]        g_ii            
   6.857824e-02   -1.976918e-01    2.930916e+00    0.000000e+00
   1.371565e-01   -1.613343e-01    1.284270e+00    0.000000e+00
   2.057347e-01   -1.434375e-01    8.179130e-01    0.000000e+00
   2.743130e-01   -1.312725e-01    5.439258e-01    0.000000e+00
   3.428912e-01   -1.228806e-01    4.153088e-01    0.000000e+00
   4.114694e-01   -1.162557e-01    3.139008e-01    0.000000e+00
   4.800477e-01   -1.142877e-01    2.585518e-01    0.000000e+00
   5.486259e-01   -1.102085e-01    2.084626e-01    0.000000e+00
   6.172042e-01   -1.057142e-01    1.792765e-01    0.000000e+00
   6.857824e-01   -1.023065e-01    1.503931e-01    0.000000e+00
   7.543606e-01   -9.951364e-02    1.329901e-01    0.000000e+00
   8.229389e-01   -9.656838e-02    1.145702e-01    0.000000e+00
   8.915171e-01   -9.404571e-02    1.032602e-01    0.000000e+00
   9.600953e-01   -9.190014e-02    9.062970e-02    0.000000e+00
   1.028674e+00   -8.986762e-02    8.278432e-02    0.000000e+00
   1.097252e+00   -8.798796e-02    7.363239e-02    0.000000e+00
   1.165830e+00   -8.626970e-02    6.790372e-02    0.000000e+00
   1.234408e+00   -8.465157e-02    6.097972e-02    0.000000e+00
   1.302987e+00   -8.317136e-02    5.662112e-02    0.000000e+00
   1.371565e+00   -8.174375e-02    5.119972e-02    0.000000e+00
   1.440143e+00   -8.044667e-02    4.777174e-02    0.000000e+00
   1.508721e+00   -7.918225e-02    4.340823e-02    0.000000e+00
   1.577299e+00   -7.802567e-02    4.063892e-02    0.000000e+00
   1.645878e+00   -7.690197e-02    3.704768e-02    0.000000e+00
   1.714456e+00   -7.583723e-02    3.476133e-02    0.000000e+00
   1.783034e+00   -7.482428e-02    3.175149e-02    0.000000e+00
   1.851612e+00   -7.384384e-02    2.983023e-02    0.000000e+00
   1.920191e+00   -7.291425e-02    2.726973e-02    0.000000e+00
   1.988769e+00   -7.204204e-02    2.563177e-02    0.000000e+00
   2.057347e+00   -7.117377e-02    2.342642e-02    0.000000e+00
   2.125925e+00   -7.036021e-02    2.201330e-02    0.000000e+00
   2.194504e+00   -6.957365e-02    2.009411e-02    0.000000e+00
   2.263082e+00   -6.880350e-02    1.886292e-02    3.712586e-13
   2.331660e+00   -6.806806e-02    1.717813e-02    6.926015e-12
   2.400238e+00   -6.735884e-02    1.609661e-02    1.754685e-11
   2.468817e+00   -6.667286e-02    1.460657e-02    5.338308e-11
   2.537395e+00   -6.600684e-02    1.364996e-02    1.060716e-10
   2.605973e+00   -6.535939e-02    1.232376e-02    2.677201e-10
   2.674551e+00   -6.472939e-02    1.147269e-02    4.865850e-10
   2.743130e+00   -6.411674e-02    1.028580e-02    1.106624e-09
   2.811708e+00   -6.352259e-02    9.524877e-03    1.889001e-09
   2.880286e+00   -6.294562e-02    8.457593e-03    3.960423e-09
   2.948864e+00   -6.238532e-02    7.774399e-03    6.419867e-09
   3.017443e+00   -6.183553e-02    6.810662e-03    1.256490e-08
   3.086021e+00   -6.129692e-02    6.195055e-03    1.948429e-08
   3.154599e+00   -6.077447e-02    5.321642e-03    3.593023e-08
   3.223177e+00   -6.026539e-02    4.765242e-03    5.360676e-08
   3.291755e+00   -5.976282e-02    3.971155e-03    9.383773e-08
   3.360334e+00   -5.927487e-02    3.466969e-03    1.353374e-07
   3.428912e+00   -5.879630e-02    2.742976e-03    2.262837e-07
   3.497490e+00   -5.832623e-02    2.285118e-03    3.167290e-07
   3.566068e+00   -5.786860e-02    1.623408e-03    5.084799e-07
   3.634647e+00   -5.741630e-02    1.206881e-03    6.930337e-07
   3.703225e+00   -5.697664e-02    6.007955e-04    1.073063e-06
   3.771803e+00   -5.654086e-02    2.213278e-04    1.428208e-06
   3.840381e+00   -5.611718e-02   -3.348453e-04    2.140946e-06
   3.908960e+00   -5.569769e-02   -6.809301e-04    2.789478e-06
   3.977538e+00   -5.528791e-02   -1.192123e-03    4.061739e-06
   4.046116e+00   -5.488366e-02   -1.508008e-03    5.191614e-06
   4.114694e+00   -5.448638e-02   -1.978502e-03    7.363891e-06
   4.183273e+00   -5.409664e-02   -2.266959e-03    9.250666e-06
   4.251851e+00   -5.371120e-02   -2.700490e-03    1.281376e-05
   4.320429e+00   -5.333375e-02   -2.963946e-03    1.584597e-05
   4.389007e+00   -5.296114e-02   -3.363792e-03    2.148178e-05
   4.457586e+00   -5.259360e-02   -3.604380e-03    2.618816e-05
   4.526164e+00   -5.223271e-02   -3.973427e-03    3.481281e-05
   4.594742e+00   -5.187604e-02   -4.193032e-03    4.188997e-05
   4.663320e+00   -5.152454e-02   -4.533835e-03    5.469719e-05
   4.731898e+00   -5.117850e-02   -4.734129e-03    6.503601e-05
   4.800477e+00   -5.083671e-02   -5.048957e-03    8.353815e-05
   4.869055e+00   -5.049895e-02   -5.231430e-03    9.824710e-05
   4.937633e+00   -5.016655e-02   -5.522306e-03    1.243112e-04
   5.006211e+00   -4.983851e-02   -5.688291e-03    1.447349e-04
   5.074790e+00   -4.951340e-02   -5.957025e-03    1.806111e-04
   5.143368e+00   -4.919315e-02   -6.107717e-03    2.083429e-04
   5.211946e+00   -4.887697e-02   -6.355935e-03    2.566835e-04
   5.280524e+00   -4.856458e-02   -6.492411e-03    2.935693e-04
   5.349103e+00   -4.825519e-02   -6.721578e-03    3.574361e-04
   5.417681e+00   -4.794979e-02   -6.844811e-03    4.055711e-04
   5.486259e+00   -4.764785e-02   -7.056249e-03    4.884304e-04
   5.554837e+00   -4.734954e-02   -7.167122e-03    5.501458e-04
   5.623416e+00   -4.705448e-02   -7.362032e-03    6.558500e-04
   5.691994e+00   -4.676212e-02   -7.461345e-03    7.336915e-04
   5.760572e+00   -4.647309e-02   -7.640817e-03    8.664475e-04
   5.829150e+00   -4.618735e-02   -7.729302e-03    9.631449e-04
   5.897729e+00   -4.590447e-02   -7.894330e-03    1.127471e-03
   5.966307e+00   -4.562457e-02   -7.972657e-03    1.245901e-03
   6.034885e+00   -4.534724e-02   -8.124149e-03    1.446573e-03
   6.103463e+00   -4.507248e-02   -8.192929e-03    1.589714e-03
   6.172042e+00   -4.480072e-02   -8.331719e-03    1.831700e-03
   6.240620e+00   -4.453164e-02   -8.391517e-03    2.002585e-03
   6.309198e+00   -4.426499e-02   -8.518367e-03    2.290977e-03
   6.377776e+00   -4.400107e-02   -8.569702e-03    2.492642e-03
   6.446354e+00   -4.373922e-02   -8.685318e-03    2.832580e-03
   6.514933e+00   -4.347977e-02   -8.728671e-03    3.068009e-03
   6.583511e+00   -4.322279e-02   -8.833701e-03    3.464602e-03
   6.652089e+00   -4.296804e-02   -8.869516e-03    3.736677e-03
   6.720667e+00   -4.271562e-02   -8.964562e-03    4.194929e-03
   6.789246e+00   -4.246534e-02   -8.993252e-03    4.506378e-03
   6.857824e+00   -4.221713e-02   -9.078870e-03    5.031109e-03
   6.926402e+00   -4.197119e-02   -9.100820e-03    5.384459e-03
   6.994980e+00   -4.172691e-02   -9.177527e-03    5.980239e-03
   7.063559e+00   -4.148498e-02   -9.193095e-03    6.377775e-03
   7.132137e+00   -4.124491e-02   -9.261372e-03    7.048856e-03
   7.200715e+00   -4.100673e-02   -9.270893e-03    7.492583e-03
   7.269293e+00   -4.077059e-02   -9.331190e-03    8.242843e-03
   7.337872e+00   -4.053615e-02   -9.334977e-03    8.734457e-03
   7.406450e+00   -4.030367e-02   -9.387714e-03    9.567354e-03
   7.475028e+00   -4.007288e-02   -9.386062e-03    1.010822e-02
   7.543606e+00   -3.984384e-02   -9.431630e-03    1.102675e-02
   7.612185e+00   -3.961655e-02   -9.424815e-03    1.161788e-02
   7.680763e+00   -3.939083e-02   -9.463584e-03    1.262455e-02
   7.749341e+00   -3.916699e-02   -9.451867e-03    1.326661e-02
   7.817919e+00   -3.894448e-02   -9.484181e-03    1.436342e-02
   7.886497e+00   -3.872398e-02   -9.467808e-03    1.505670e-02
   7.955076e+00   -3.850470e-02   -9.493994e-03    1.624514e-02
   8.023654e+00   -3.828729e-02   -9.473198e-03    1.698960e-02
   8.092232e+00   -3.807120e-02   -9.493563e-03    1.827062e-02
   8.160810e+00   -3.785671e-02   -9.468564e-03    1.906587e-02
   8.229389e+00   -3.764366e-02   -9.483396e-03    2.043993e-02
   8.297967e+00   -3.743200e-02   -9.454403e-03    2.128525e-02
   8.366545e+00   -3.722190e-02   -9.463977e-03    2.275232e-02
   8.435123e+00   -3.701304e-02   -9.431189e-03    2.364668e-02
   8.503702e+00   -3.680578e-02   -9.435764e-03    2.520625e-02
   8.572280e+00   -3.659979e-02   -9.399369e-03    2.614837e-02
   8.640858e+00   -3.639516e-02   -9.399192e-03    2.779948e-02
   8.709436e+00   -3.619185e-02   -9.359371e-03    2.878782e-02
   8.778015e+00   -3.598998e-02   -9.354674e-03    3.052913e-02
   8.846593e+00   -3.578924e-02   -9.311598e-03    3.156192e-02
   8.915171e+00   -3.558995e-02   -9.302605e-03    3.339169e-02
   8.983749e+00   -3.539185e-02   -9.256439e-03    3.446700e-02
   9.052328e+00   -3.519500e-02   -9.243360e-03    3.638317e-02
   9.120906e+00   -3.499933e-02   -9.194260e-03    3.749891e-02
   9.189484e+00   -3.480502e-02   -9.177299e-03    3.949915e-02
   9.258062e+00   -3.461186e-02   -9.125416e-03    4.065310e-02
   9.326640e+00   -3.441987e-02   -9.104763e-03    4.273481e-02
   9.395219e+00   -3.422909e-02   -9.050242e-03    4.392469e-02
   9.463797e+00   -3.403954e-02   -9.026083e-03    4.608510e-02
   9.532375e+00   -3.385113e-02   -8.969062e-03    4.730856e-02
   9.600953e+00   -3.366380e-02   -8.941572e-03    4.954473e-02
   9.669532e+00   -3.347766e-02   -8.882185e-03    5.079940e-02
   9.738110e+00   -3.329264e-02   -8.851533e-03    5.310827e-02
   9.806688e+00   -3.310880e-02   -8.789908e-03    5.439181e-02
   9.875266e+00   -3.292603e-02   -8.756255e-03    5.677025e-02
   9.943845e+00   -3.274437e-02   -8.692517e-03    5.808035e-02
   1.001242e+01   -3.256373e-02   -8.656018e-03    6.052520e-02
   1.008100e+01   -3.238425e-02   -8.590285e-03    6.185960e-02
   1.014958e+01   -3.220584e-02   -8.551090e-03    6.436768e-02
   1.021816e+01   -3.202856e-02   -8.483477e-03    6.572422e-02
   1.028674e+01   -3.185230e-02   -8.441730e-03    6.829242e-02
   1.035531e+01   -3.167710e-02   -8.372348e-03    6.966904e-02
   1.042389e+01   -3.150292e-02   -8.328186e-03    7.229427e-02
   1.049247e+01   -3.132983e-02   -8.257143e-03    7.368903e-02
   1.056105e+01   -3.115773e-02   -8.210699e-03    7.636832e-02
   1.062963e+01   -3.098669e-02   -8.138099e-03    7.777942e-02
   1.069821e+01   -3.081667e-02   -8.089501e-03    8.050991e-02
   1.076678e+01   -3.064772e-02   -8.015444e-03    8.193571e-02
   1.083536e+01   -3.047983e-02   -7.964816e-03    8.471466e-02
   1.090394e+01   -3.031289e-02   -7.889400e-03    8.615367e-02
   1.097252e+01   -3.014705e-02   -7.836860e-03    8.897852e-02
   1.104110e+01   -2.998216e-02   -7.760179e-03    9.042942e-02
   1.110967e+01   -2.981832e-02   -7.705844e-03    9.329775e-02
   1.117825e+01   -2.965546e-02   -7.627990e-03    9.475941e-02
   1.124683e+01   -2.949362e-02   -7.571970e-03    9.766900e-02
   1.131541e+01   -2.933277e-02   -7.493032e-03    9.914044e-02
   1.138399e+01   -2.917295e-02   -7.435434e-03    1.020893e-01
   1.145257e+01   -2.901414e-02   -7.355498e-03    1.035697e-01
   1.152114e+01   -2.885632e-02   -7.296428e-03    1.065559e-01
   1.158972e+01   -2.869953e-02   -7.215578e-03    1.080448e-01
   1.165830e+01   -2.854372e-02   -7.155135e-03    1.110668e-01
   1.172688e+01   -2.838894e-02   -7.073451e-03    1.125637e-01
   1.179546e+01   -2.823517e-02   -7.011734e-03    1.156200e-01
   1.186404e+01   -2.808241e-02   -6.929296e-03    1.171246e-01
   1.193261e+01   -2.793068e-02   -6.866398e-03    1.202141e-01
   1.200119e+01   -2.777995e-02   -6.783284e-03    1.217264e-01
   1.206977e+01   -2.763024e-02   -6.719297e-03    1.248481e-01
   1.213835e+01   -2.748159e-02   -6.635580e-03    1.263682e-01
   1.220693e+01   -2.733394e-02   -6.570593e-03    1.295212e-01
   1.227550e+01   -2.718734e-02   -6.486346e-03    1.310494e-01
   1.234408e+01   -2.704180e-02   -6.420444e-03    1.342332e-01
   1.241266e+01   -2.689728e-02   -6.335738e-03    1.357699e-01
   1.248124e+01   -2.675382e-02   -6.269006e-03    1.389840e-01
   1.254982e+01   -2.661147e-02   -6.183909e-03    1.405298e-01
   1.261840e+01   -2.647025e-02   -6.116427e-03    1.437742e-01
   1.268697e+01   -2.633011e-02   -6.031006e-03    1.453299e-01
   1.275555e+01   -2.619111e-02   -5.962853e-03    1.486045e-01
   1.282413e+01   -2.605322e-02   -5.877173e-03    1.501709e-01
   1.289271e+01   -2.591642e-02   -5.808424e-03    1.534759e-01
   1.296129e+01   -2.578075e-02   -5.722548e-03    1.550540e-01
   1.302987e+01   -2.564623e-02   -5.653278e-03    1.583898e-01
   1.309844e+01   -2.551288e-02   -5.567267e-03    1.599808e-01
   1.316702e+01   -2.538068e-02   -5.497548e-03    1.633480e-01
   1.323560e+01   -2.524966e-02   -5.411463e-03    1.649531e-01
   1.330418e+01   -2.511997e-02   -5.341363e-03    1.683523e-01
   1.337276e+01   -2.499147e-02   -5.255261e-03    1.699730e-01
   1.344133e+01   -2.486416e-02   -5.184848e-03    1.734051e-01
   1.350991e+01   -2.473805e-02   -5.098787e-03    1.750427e-01
   1.357849e+01   -2.461313e-02   -5.028127e-03    1.785088e-01
   1.364707e+01   -2.448940e-02   -4.942160e-03    1.801650e-01
   1.371565e+01   -2.436684e-02   -4.871317e-03    1.836662e-01
   1.378423e+01   -2.424561e-02   -4.785498e-03    1.853427e-01
   1.385280e+01   -2.412558e-02   -4.714533e-03    1.888802e-01
   1.392138e+01   -2.400674e-02   -4.628914e-03    1.905787e-01
   1.398996e+01   -2.388906e-02   -4.557887e-03    1.941541e-01
   1.405854e+01   -2.377252e-02   -4.472518e-03    1.958765e-01
   1.412712e+01   -2.365712e-02   -4.401487e-03    1.994912e-01
   1.419570e+01   -2.354284e-02   -4.316418e-03    2.012393e-01
   1.426427e+01   -2.342965e-02   -4.245439e-03    2.048951e-01
   1.433285e+01   -2.331755e-02   -4.160717e-03    2.066709e-01
   1.440143e+01   -2.320651e-02   -4.089845e-03    2.103695e-01
   1.447001e+01   -2.309653e-02   -4.005516e-03    2.121750e-01
   1.453859e+01   -2.298758e-02   -3.934803e-03    2.159183e-01
   1.460716e+01   -2.287966e-02   -3.850912e-03    2.177557e-01
   1.467574e+01   -2.277274e-02   -3.780410e-03    2.215456e-01
   1.474432e+01   -2.266682e-02   -3.697000e-03    2.234169e-01
   1.481290e+01   -2.256189e-02   -3.626759e-03    2.272555e-01
   1.488148e+01   -2.245791e-02   -3.543872e-03    2.291631e-01
   1.495006e+01   -2.235490e-02   -3.473940e-03    2.330524e-01
   1.501863e+01   -2.225282e-02   -3.391617e-03    2.349983e-01
   1.508721e+01   -2.215167e-02   -3.322039e-03    2.389406e-01
   1.515579e+01   -2.205144e-02   -3.240320e-03    2.409273e-01
   1.522437e+01   -2.195211e-02   -3.171142e-03    2.449248e-01
   1.529295e+01   -2.185367e-02   -3.090065e-03    2.469544e-01
   1.536153e+01   -2.175610e-02   -3.021331e-03    2.510095e-01
   1.543010e+01   -2.165941e-02   -2.940931e-03    2.530844e-01
   1.549868e+01   -2.156357e-02   -2.872683e-03    2.571994e-01
   1.556726e+01   -2.146858e-02   -2.792998e-03    2.593219e-01
   1.563584e+01   -2.137442e-02   -2.725275e-03    2.634993e-01
   1.570442e+01   -2.128108e-02   -2.646339e-03    2.656718e-01
   1.577299e+01   -2.118855e-02   -2.579182e-03    2.699140e-01
   1.584157e+01   -2.109683e-02   -2.501027e-03    2.721388e-01
   1.591015e+01   -2.100589e-02   -2.434474e-03    2.764484e-01
   1.597873e+01   -2.091574e-02   -2.357133e-03    2.787279e-01
   1.604731e+01   -2.082636e-02   -2.291219e-03    2.831074e-01
   1.611589e+01   -2.073773e-02   -2.214723e-03    2.854441e-01
   1.618446e+01   -2.064986e-02   -2.149483e-03    2.898959e-01
   1.625304e+01   -2.056273e-02   -2.073861e-03    2.922921e-01
   1.632162e+01   -2.047633e-02   -2.009330e-03    2.968190e-01
   1.639020e+01   -2.039066e-02   -1.934612e-03    2.992771e-01
   1.645878e+01   -2.030570e-02   -1.870821e-03    3.038816e-01
   1.652736e+01   -2.022144e-02   -1.797033e-03    3.064040e-01
   1.659593e+01   -2.013788e-02   -1.734014e-03    3.110887e-01
   1.666451e+01   -2.005501e-02   -1.661183e-03    3.136777e-01
   1.673309e+01   -1.997282e-02   -1.598966e-03    3.184452e-01
   1.680167e+01   -1.989130e-02   -1.527116e-03    3.211032e-01
   1.687025e+01   -1.981044e-02   -1.465730e-03    3.259562e-01
   1.693883e+01   -1.973023e-02   -1.394886e-03    3.286855e-01
   1.700740e+01   -1.965067e-02   -1.334358e-03    3.336265e-01
   1.707598e+01   -1.957176e-02   -1.264543e-03    3.364294e-01
   1.714456e+01   -1.949347e-02   -1.204899e-03    3.414610e-01
   1.721314e+01   -1.941581e-02   -1.136134e-03    3.443398e-01
   1.728172e+01   -1.933876e-02   -1.077400e-03    3.494645e-01
   1.735029e+01   -1.926232e-02   -1.009706e-03    3.524214e-01
   1.741887e+01   -1.918649e-02   -9.519048e-04    3.576418e-01
   1.748745e+01   -1.911124e-02   -8.853028e-04    3.606790e-01
   1.755603e+01   -1.903659e-02   -8.284571e-04    3.659976e-01
   1.762461e+01   -1.896252e-02   -7.629650e-04    3.691173e-01
   1.769319e+01   -1.888902e-02   -7.070968e-04    3.745364e-01
   1.776176e+01   -1.881609e-02   -6.427322e-04    3.777406e-01
   1.783034e+01   -1.874372e-02   -5.878618e-04    3.832628e-01
   1.789892e+01   -1.867191e-02   -5.246415e-04    3.865535e-01
   1.796750e+01   -1.860064e-02   -4.707883e-04    3.921809e-01
   1.803608e+01   -1.852991e-02   -4.087280e-04    3.955602e-01
   1.810466e+01   -1.845972e-02   -3.559103e-04    4.012952e-01
   1.817323e+01   -1.839007e-02   -2.950245e-04    4.047648e-01
   1.824181e+01   -1.832093e-02   -2.432594e-04    4.106096e-01
   1.831039e+01   -1.825231e-02   -1.835620e-04    4.141714e-01
   1.837897e+01   -1.818421e-02   -1.328656e-04    4.201281e-01
   1.844755e+01   -1.811661e-02   -7.436928e-05    4.237838e-01
   1.851612e+01   -1.804951e-02   -2.475664e-05    4.298543e-01
   1.858470e+01   -1.798291e-02    3.252679e-05    4.336055e-01
   1.865328e+01   -1.791679e-02    8.104162e-05    4.397918e-01
   1.872186e+01   -1.785116e-02    1.371013e-04    4.436400e-01
   1.879044e+01   -1.778601e-02    1.845053e-04    4.499438e-01
   1.885902e+01   -1.772134e-02    2.393314e-04    4.538904e-01
   1.892759e+01   -1.765713e-02    2.856125e-04    4.603134e-01
   1.899617e+01   -1.759338e-02    3.391959e-04    4.643596e-01
   1.906475e+01   -1.753010e-02    3.843431e-04    4.709035e-01
   1.913333e+01   -1.746727e-02    4.366758e-04    4.750505e-01
   1.920191e+01   -1.740488e-02    4.806790e-04    4.817164e-01
   1.927049e+01   -1.734294e-02    5.317537e-04    4.859652e-01
   1.933906e+01   -1.728144e-02    5.746038e-04    4.927545e-01
   1.940764e+01   -1.722038e-02    6.244141e-04    4.971059e-01
   1.947622e+01   -1.715974e-02    6.661030e-04    5.040197e-01
   1.954480e+01   -1.709953e-02    7.146435e-04    5.084743e-01
   1.961338e+01   -1.703975e-02    7.551639e-04    5.155134e-01
   1.968195e+01   -1.698037e-02    8.024299e-04    5.200718e-01
   1.975053e+01   -1.692141e-02    8.417754e-04    5.272370e-01
   1.981911e+01   -1.686286e-02    8.877632e-04    5.318995e-01
   1.988769e+01   -1.680472e-02    9.259282e-04    5.391912e-01
   1.995627e+01   -1.674697e-02    9.706349e-04    5.439580e-01
   2.002485e+01   -1.668961e-02    1.007615e-03    5.513765e-01
   2.009342e+01   -1.663265e-02    1.051038e-03    5.562474e-01
   2.016200e+01   -1.657608e-02    1.086830e-03    5.637929e-01
   2.023058e+01   -1.651989e-02    1.128968e-03    5.687677e-01
   2.029916e+01   -1.646408e-02    1.163568e-03    5.764398e-01
   2.036774e+01   -1.640864e-02    1.204421e-03    5.815180e-01
   2.043632e+01   -1.635358e-02    1.237827e-03    5.893165e-01
   2.050489e+01   -1.629889e-02    1.277396e-03    5.944973e-01
   2.057347e+01   -1.624456e-02    1.309607e-03    6.024215e-01
   2.064205e+01   -1.619059e-02    1.347891e-03    6.077039e-01
   2.071063e+01   -1.613698e-02    1.378907e-03    6.157528e-01
   2.077921e+01   -1.608372e-02    1.415909e-03    6.211357e-01
   2.084778e+01   -1.603081e-02    1.445729e-03    6.293080e-01
   2.091636e+01   -1.597825e-02    1.481451e-03    6.347898e-01
   2.098494e+01   -1.592604e-02    1.510078e-03    6.430842e-01
