# All units in Hartree [AU] if not specified
# Convergence: Err(φ)=4.059e-11, Err(n_e)=8.724e-11, Err(IET)=9.526e-13, Q_net=3.493e-07
# {"name":"Ar", "Z":18, "Zstar":1.1885560058420097, "A":39.948,  "μ[AU]": -1.9286687910e-01, "Te[AU]": 6.281e-02, "Ti[AU]": 6.281e-02, "rs[AU]": 1.372e+01 }
   r[AU]           n[AU]           nf[AU]          nb[AU]          n_ion[AU]       φtot[AU]        δVxc/δρ[Au]     U_ei[AU]        U_ii[AU]        g_ii            
   1.000000e-04    7.290097e+06   -7.554502e+00    7.290105e+06    0.000000e+00    1.799174e+05    0.000000e+00    3.600360e+00    5.877333e+01   -2.014352e-14
   1.005935e-04    7.225645e+06   -8.242235e+00    7.225654e+06    0.000000e+00    1.788554e+05    0.000000e+00    3.600360e+00    5.877313e+01   -2.014320e-14
   1.011905e-04    7.161764e+06   -8.444451e+00    7.161772e+06    0.000000e+00    1.777997e+05    0.000000e+00    3.600360e+00    5.877294e+01   -2.014288e-14
   1.017911e-04    7.098448e+06   -7.447954e+00    7.098456e+06    0.000000e+00    1.767502e+05    0.000000e+00    3.600360e+00    5.877274e+01   -2.014256e-14
   1.023952e-04    7.035689e+06   -9.733951e+00    7.035699e+06    0.000000e+00    1.757069e+05    0.000000e+00    3.600360e+00    5.877254e+01   -2.014223e-14
   1.030029e-04    6.973489e+06   -7.130178e+00    6.973496e+06    0.000000e+00    1.746698e+05    0.000000e+00    3.600360e+00    5.877233e+01   -2.014191e-14
   1.036142e-04    6.911833e+06   -1.046991e+01    6.911844e+06    0.000000e+00    1.736387e+05    0.000000e+00    3.600360e+00    5.877213e+01   -2.014158e-14
   1.042292e-04    6.850729e+06   -7.248786e+00    6.850736e+06    0.000000e+00    1.726138e+05    0.000000e+00    3.600360e+00    5.877193e+01   -2.014124e-14
   1.048478e-04    6.790159e+06   -8.948722e+00    6.790168e+06    0.000000e+00    1.715949e+05    0.000000e+00    3.600360e+00    5.877172e+01   -2.014091e-14
   1.054700e-04    6.730128e+06   -7.795828e+00    6.730136e+06    0.000000e+00    1.705820e+05    0.000000e+00    3.600360e+00    5.877152e+01   -2.014058e-14
   1.060960e-04    6.670626e+06   -7.904536e+00    6.670634e+06    0.000000e+00    1.695751e+05    0.000000e+00    3.600360e+00    5.877131e+01   -2.014024e-14
   1.067257e-04    6.611650e+06   -8.742548e+00    6.611659e+06    0.000000e+00    1.685741e+05    0.000000e+00    3.600360e+00    5.877110e+01   -2.013990e-14
   1.073591e-04    6.553197e+06   -7.313199e+00    6.553204e+06    0.000000e+00    1.675791e+05    0.000000e+00    3.600360e+00    5.877089e+01   -2.013956e-14
   1.079962e-04    6.495256e+06   -1.006716e+01    6.495266e+06    0.000000e+00    1.665899e+05    0.000000e+00    3.600360e+00    5.877068e+01   -2.013921e-14
   1.086372e-04    6.437833e+06   -7.151420e+00    6.437840e+06    0.000000e+00    1.656065e+05    0.000000e+00    3.600360e+00    5.877047e+01   -2.013887e-14
   1.092819e-04    6.380912e+06   -9.741837e+00    6.380922e+06    0.000000e+00    1.646290e+05    0.000000e+00    3.600360e+00    5.877025e+01   -2.013852e-14
   1.099305e-04    6.324499e+06   -7.396318e+00    6.324506e+06    0.000000e+00    1.636572e+05    0.000000e+00    3.600360e+00    5.877004e+01   -2.013817e-14
   1.105830e-04    6.268581e+06   -8.477061e+00    6.268590e+06    0.000000e+00    1.626911e+05    0.000000e+00    3.600360e+00    5.876982e+01   -2.013782e-14
   1.112393e-04    6.213159e+06   -8.025779e+00    6.213167e+06    0.000000e+00    1.617308e+05    0.000000e+00    3.600360e+00    5.876961e+01   -2.013747e-14
   1.118995e-04    6.158227e+06   -7.646869e+00    6.158235e+06    0.000000e+00    1.607761e+05    0.000000e+00    3.600360e+00    5.876939e+01   -2.013711e-14
   1.125636e-04    6.103779e+06   -9.019206e+00    6.103788e+06    0.000000e+00    1.598270e+05    0.000000e+00    3.600360e+00    5.876917e+01   -2.013675e-14
   1.132316e-04    6.049815e+06   -7.229289e+00    6.049822e+06    0.000000e+00    1.588836e+05    0.000000e+00    3.600360e+00    5.876894e+01   -2.013639e-14
   1.139037e-04    5.996323e+06   -1.035623e+01    5.996333e+06    0.000000e+00    1.579457e+05    0.000000e+00    3.600360e+00    5.876872e+01   -2.013603e-14
   1.145797e-04    5.943310e+06   -7.211018e+00    5.943317e+06    0.000000e+00    1.570134e+05    0.000000e+00    3.600360e+00    5.876850e+01   -2.013567e-14
   1.152597e-04    5.890760e+06   -9.140783e+00    5.890769e+06    0.000000e+00    1.560865e+05    0.000000e+00    3.600360e+00    5.876827e+01   -2.013530e-14
   1.159437e-04    5.838679e+06   -7.546038e+00    5.838686e+06    0.000000e+00    1.551651e+05    0.000000e+00    3.600360e+00    5.876805e+01   -2.013493e-14
   1.166319e-04    5.787055e+06   -8.098858e+00    5.787063e+06    0.000000e+00    1.542492e+05    0.000000e+00    3.600360e+00    5.876782e+01   -2.013456e-14
   1.173241e-04    5.735888e+06   -8.246083e+00    5.735897e+06    0.000000e+00    1.533386e+05    0.000000e+00    3.600360e+00    5.876759e+01   -2.013419e-14
   1.180204e-04    5.685175e+06   -7.453214e+00    5.685182e+06    0.000000e+00    1.524334e+05    0.000000e+00    3.600360e+00    5.876736e+01   -2.013381e-14
   1.187208e-04    5.634907e+06   -9.263967e+00    5.634916e+06    0.000000e+00    1.515336e+05    0.000000e+00    3.600360e+00    5.876713e+01   -2.013343e-14
   1.194254e-04    5.585087e+06   -7.183065e+00    5.585095e+06    0.000000e+00    1.506391e+05    0.000000e+00    3.600360e+00    5.876689e+01   -2.013305e-14
   1.201342e-04    5.535703e+06   -9.874392e+00    5.535713e+06    0.000000e+00    1.497498e+05    0.000000e+00    3.600360e+00    5.876666e+01   -2.013267e-14
   1.208472e-04    5.486761e+06   -7.268665e+00    5.486768e+06    0.000000e+00    1.488658e+05    0.000000e+00    3.600360e+00    5.876642e+01   -2.013229e-14
   1.215644e-04    5.438247e+06   -8.645593e+00    5.438256e+06    0.000000e+00    1.479871e+05    0.000000e+00    3.600360e+00    5.876618e+01   -2.013190e-14
   1.222859e-04    5.390164e+06   -7.698991e+00    5.390172e+06    0.000000e+00    1.471135e+05    0.000000e+00    3.600360e+00    5.876594e+01   -2.013151e-14
   1.230117e-04    5.342506e+06   -7.804841e+00    5.342514e+06    0.000000e+00    1.462450e+05    0.000000e+00    3.600360e+00    5.876570e+01   -2.013112e-14
   1.237417e-04    5.295268e+06   -8.432507e+00    5.295276e+06    0.000000e+00    1.453817e+05    0.000000e+00    3.600360e+00    5.876546e+01   -2.013073e-14
   1.244761e-04    5.248449e+06   -7.309423e+00    5.248456e+06    0.000000e+00    1.445235e+05    0.000000e+00    3.600360e+00    5.876522e+01   -2.013033e-14
   1.252149e-04    5.202041e+06   -9.474323e+00    5.202050e+06    0.000000e+00    1.436703e+05    0.000000e+00    3.600360e+00    5.876497e+01   -2.012993e-14
   1.259580e-04    5.156047e+06   -7.163758e+00    5.156054e+06    0.000000e+00    1.428222e+05    0.000000e+00    3.600360e+00    5.876473e+01   -2.012953e-14
   1.267056e-04    5.110456e+06   -9.273062e+00    5.110465e+06    0.000000e+00    1.419791e+05    0.000000e+00    3.600360e+00    5.876448e+01   -2.012913e-14
   1.274576e-04    5.065271e+06   -7.342078e+00    5.065279e+06    0.000000e+00    1.411409e+05    0.000000e+00    3.600360e+00    5.876423e+01   -2.012873e-14
   1.282140e-04    5.020483e+06   -8.238415e+00    5.020491e+06    0.000000e+00    1.403077e+05    0.000000e+00    3.600360e+00    5.876398e+01   -2.012832e-14
   1.289750e-04    4.976092e+06   -7.827023e+00    4.976100e+06    0.000000e+00    1.394794e+05    0.000000e+00    3.600360e+00    5.876373e+01   -2.012791e-14
   1.297404e-04    4.932094e+06   -7.558970e+00    4.932101e+06    0.000000e+00    1.386560e+05    0.000000e+00    3.600360e+00    5.876347e+01   -2.012750e-14
   1.305104e-04    4.888483e+06   -8.601596e+00    4.888492e+06    0.000000e+00    1.378375e+05    0.000000e+00    3.600360e+00    5.876322e+01   -2.012708e-14
   1.312850e-04    4.845260e+06   -7.204072e+00    4.845267e+06    0.000000e+00    1.370237e+05    0.000000e+00    3.600360e+00    5.876296e+01   -2.012666e-14
   1.320642e-04    4.802415e+06   -9.649766e+00    4.802425e+06    0.000000e+00    1.362148e+05    0.000000e+00    3.600360e+00    5.876270e+01   -2.012624e-14
   1.328480e-04    4.759954e+06   -7.162853e+00    4.759961e+06    0.000000e+00    1.354107e+05    0.000000e+00    3.600360e+00    5.876244e+01   -2.012582e-14
   1.336364e-04    4.717864e+06   -8.756858e+00    4.717872e+06    0.000000e+00    1.346113e+05    0.000000e+00    3.600360e+00    5.876218e+01   -2.012540e-14
   1.344295e-04    4.676149e+06   -7.416386e+00    4.676156e+06    0.000000e+00    1.338166e+05    0.000000e+00    3.600360e+00    5.876192e+01   -2.012497e-14
   1.352274e-04    4.634800e+06   -7.903353e+00    4.634808e+06    0.000000e+00    1.330266e+05    0.000000e+00    3.600360e+00    5.876166e+01   -2.012454e-14
   1.360299e-04    4.593818e+06   -7.948854e+00    4.593826e+06    0.000000e+00    1.322413e+05    0.000000e+00    3.600360e+00    5.876139e+01   -2.012411e-14
   1.368372e-04    4.553199e+06   -7.365729e+00    4.553206e+06    0.000000e+00    1.314606e+05    0.000000e+00    3.600360e+00    5.876112e+01   -2.012367e-14
   1.376494e-04    4.512936e+06   -8.744960e+00    4.512945e+06    0.000000e+00    1.306845e+05    0.000000e+00    3.600360e+00    5.876085e+01   -2.012323e-14
   1.384663e-04    4.473033e+06   -7.133866e+00    4.473040e+06    0.000000e+00    1.299130e+05    0.000000e+00    3.600360e+00    5.876058e+01   -2.012279e-14
   1.392881e-04    4.433478e+06   -9.341129e+00    4.433487e+06    0.000000e+00    1.291460e+05    0.000000e+00    3.600360e+00    5.876031e+01   -2.012235e-14
   1.401148e-04    4.394277e+06   -7.176333e+00    4.394284e+06    0.000000e+00    1.283836e+05    0.000000e+00    3.600360e+00    5.876004e+01   -2.012191e-14
   1.409463e-04    4.355420e+06   -8.329607e+00    4.355428e+06    0.000000e+00    1.276256e+05    0.000000e+00    3.600360e+00    5.875976e+01   -2.012146e-14
   1.417828e-04    4.316908e+06   -7.486416e+00    4.316915e+06    0.000000e+00    1.268722e+05    0.000000e+00    3.600360e+00    5.875948e+01   -2.012101e-14
   1.426243e-04    4.278735e+06   -7.627569e+00    4.278743e+06    0.000000e+00    1.261231e+05    0.000000e+00    3.600360e+00    5.875920e+01   -2.012055e-14
   1.434708e-04    4.240900e+06   -8.055234e+00    4.240908e+06    0.000000e+00    1.253785e+05    0.000000e+00    3.600360e+00    5.875892e+01   -2.012010e-14
   1.443223e-04    4.203400e+06   -7.215304e+00    4.203407e+06    0.000000e+00    1.246383e+05    0.000000e+00    3.600360e+00    5.875864e+01   -2.011964e-14
   1.451788e-04    4.166229e+06   -8.861119e+00    4.166238e+06    0.000000e+00    1.239025e+05    0.000000e+00    3.600360e+00    5.875836e+01   -2.011918e-14
   1.460404e-04    4.129390e+06   -7.071267e+00    4.129397e+06    0.000000e+00    1.231710e+05    0.000000e+00    3.600360e+00    5.875807e+01   -2.011871e-14
   1.469072e-04    4.092873e+06   -8.823766e+00    4.092882e+06    0.000000e+00    1.224438e+05    0.000000e+00    3.600360e+00    5.875778e+01   -2.011825e-14
   1.477791e-04    4.056682e+06   -7.193466e+00    4.056690e+06    0.000000e+00    1.217209e+05    0.000000e+00    3.600360e+00    5.875750e+01   -2.011778e-14
   1.486561e-04    4.020809e+06   -7.976366e+00    4.020817e+06    0.000000e+00    1.210023e+05    0.000000e+00    3.600360e+00    5.875721e+01   -2.011730e-14
   1.495384e-04    3.985254e+06   -7.554253e+00    3.985262e+06    0.000000e+00    1.202879e+05    0.000000e+00    3.600360e+00    5.875691e+01   -2.011683e-14
   1.504259e-04    3.950013e+06   -7.400929e+00    3.950021e+06    0.000000e+00    1.195777e+05    0.000000e+00    3.600360e+00    5.875662e+01   -2.011635e-14
   1.513187e-04    3.915083e+06   -8.140129e+00    3.915091e+06    0.000000e+00    1.188717e+05    0.000000e+00    3.600360e+00    5.875632e+01   -2.011587e-14
   1.522167e-04    3.880463e+06   -7.089948e+00    3.880470e+06    0.000000e+00    1.181699e+05    0.000000e+00    3.600360e+00    5.875603e+01   -2.011539e-14
   1.531201e-04    3.846147e+06   -8.949772e+00    3.846156e+06    0.000000e+00    1.174722e+05    0.000000e+00    3.600360e+00    5.875573e+01   -2.011490e-14
   1.540289e-04    3.812137e+06   -7.028915e+00    3.812144e+06    0.000000e+00    1.167787e+05    0.000000e+00    3.600360e+00    5.875542e+01   -2.011441e-14
   1.549430e-04    3.778425e+06   -8.384134e+00    3.778433e+06    0.000000e+00    1.160892e+05    0.000000e+00    3.600360e+00    5.875512e+01   -2.011392e-14
   1.558626e-04    3.745013e+06   -7.203001e+00    3.745020e+06    0.000000e+00    1.154038e+05    0.000000e+00    3.600360e+00    5.875482e+01   -2.011342e-14
   1.567877e-04    3.711895e+06   -7.668030e+00    3.711903e+06    0.000000e+00    1.147224e+05    0.000000e+00    3.600360e+00    5.875451e+01   -2.011292e-14
   1.577182e-04    3.679070e+06   -7.600590e+00    3.679078e+06    0.000000e+00    1.140451e+05    0.000000e+00    3.600360e+00    5.875420e+01   -2.011242e-14
   1.586542e-04    3.646536e+06   -7.210825e+00    3.646543e+06    0.000000e+00    1.133718e+05    0.000000e+00    3.600360e+00    5.875389e+01   -2.011192e-14
   1.595958e-04    3.614288e+06   -8.205990e+00    3.614296e+06    0.000000e+00    1.127024e+05    0.000000e+00    3.600360e+00    5.875358e+01   -2.011141e-14
   1.605430e-04    3.582327e+06   -6.988980e+00    3.582334e+06    0.000000e+00    1.120370e+05    0.000000e+00    3.600360e+00    5.875327e+01   -2.011090e-14
   1.614958e-04    3.550645e+06   -8.837330e+00    3.550654e+06    0.000000e+00    1.113755e+05    0.000000e+00    3.600360e+00    5.875295e+01   -2.011039e-14
   1.624543e-04    3.519248e+06   -6.994906e+00    3.519255e+06    0.000000e+00    1.107179e+05    0.000000e+00    3.600360e+00    5.875263e+01   -2.010987e-14
   1.634185e-04    3.488125e+06   -8.004199e+00    3.488133e+06    0.000000e+00    1.100642e+05    0.000000e+00    3.600360e+00    5.875231e+01   -2.010935e-14
   1.643883e-04    3.457278e+06   -7.214863e+00    3.457286e+06    0.000000e+00    1.094143e+05    0.000000e+00    3.600360e+00    5.875199e+01   -2.010883e-14
   1.653640e-04    3.426704e+06   -7.411503e+00    3.426711e+06    0.000000e+00    1.087683e+05    0.000000e+00    3.600360e+00    5.875167e+01   -2.010831e-14
   1.663454e-04    3.396400e+06   -7.638273e+00    3.396407e+06    0.000000e+00    1.081261e+05    0.000000e+00    3.600360e+00    5.875134e+01   -2.010778e-14
   1.673327e-04    3.366364e+06   -7.053763e+00    3.366371e+06    0.000000e+00    1.074877e+05    0.000000e+00    3.600360e+00    5.875102e+01   -2.010725e-14
   1.683258e-04    3.336592e+06   -8.255583e+00    3.336600e+06    0.000000e+00    1.068530e+05    0.000000e+00    3.600360e+00    5.875069e+01   -2.010671e-14
   1.693248e-04    3.307086e+06   -6.908666e+00    3.307093e+06    0.000000e+00    1.062221e+05    0.000000e+00    3.600360e+00    5.875036e+01   -2.010617e-14
   1.703297e-04    3.277838e+06   -8.396311e+00    3.277846e+06    0.000000e+00    1.055949e+05    0.000000e+00    3.600360e+00    5.875002e+01   -2.010563e-14
   1.713406e-04    3.248851e+06   -6.964845e+00    3.248858e+06    0.000000e+00    1.049714e+05    0.000000e+00    3.600360e+00    5.874969e+01   -2.010509e-14
   1.723575e-04    3.220118e+06   -7.681828e+00    3.220126e+06    0.000000e+00    1.043516e+05    0.000000e+00    3.600360e+00    5.874935e+01   -2.010454e-14
   1.733804e-04    3.191641e+06   -7.220636e+00    3.191648e+06    0.000000e+00    1.037355e+05    0.000000e+00    3.600360e+00    5.874901e+01   -2.010399e-14
   1.744094e-04    3.163415e+06   -7.192508e+00    3.163422e+06    0.000000e+00    1.031230e+05    0.000000e+00    3.600360e+00    5.874867e+01   -2.010343e-14
   1.754445e-04    3.135437e+06   -7.661334e+00    3.135445e+06    0.000000e+00    1.025141e+05    0.000000e+00    3.600360e+00    5.874833e+01   -2.010288e-14
   1.764858e-04    3.107709e+06   -6.912061e+00    3.107715e+06    0.000000e+00    1.019088e+05    0.000000e+00    3.600360e+00    5.874798e+01   -2.010232e-14
   1.775332e-04    3.080223e+06   -8.274353e+00    3.080231e+06    0.000000e+00    1.013070e+05    0.000000e+00    3.600360e+00    5.874764e+01   -2.010175e-14
   1.785869e-04    3.052983e+06   -6.829861e+00    3.052990e+06    0.000000e+00    1.007088e+05    0.000000e+00    3.600360e+00    5.874729e+01   -2.010119e-14
   1.796468e-04    3.025981e+06   -8.010667e+00    3.025989e+06    0.000000e+00    1.001142e+05    0.000000e+00    3.600360e+00    5.874693e+01   -2.010061e-14
   1.807130e-04    2.999220e+06   -6.935230e+00    2.999227e+06    0.000000e+00    9.952302e+04    0.000000e+00    3.600360e+00    5.874658e+01   -2.010004e-14
   1.817855e-04    2.972694e+06   -7.404354e+00    2.972702e+06    0.000000e+00    9.893536e+04    0.000000e+00    3.600360e+00    5.874623e+01   -2.009946e-14
   1.828644e-04    2.946403e+06   -7.218041e+00    2.946411e+06    0.000000e+00    9.835117e+04    0.000000e+00    3.600360e+00    5.874587e+01   -2.009888e-14
   1.839497e-04    2.920345e+06   -7.003255e+00    2.920352e+06    0.000000e+00    9.777042e+04    0.000000e+00    3.600360e+00    5.874551e+01   -2.009830e-14
   1.850414e-04    2.894516e+06   -7.668368e+00    2.894524e+06    0.000000e+00    9.719310e+04    0.000000e+00    3.600360e+00    5.874515e+01   -2.009771e-14
   1.861396e-04    2.868917e+06   -6.792653e+00    2.868924e+06    0.000000e+00    9.661918e+04    0.000000e+00    3.600360e+00    5.874478e+01   -2.009712e-14
   1.872443e-04    2.843542e+06   -8.276816e+00    2.843550e+06    0.000000e+00    9.604865e+04    0.000000e+00    3.600360e+00    5.874442e+01   -2.009652e-14
   1.883556e-04    2.818394e+06   -6.762516e+00    2.818401e+06    0.000000e+00    9.548149e+04    0.000000e+00    3.600360e+00    5.874405e+01   -2.009593e-14
   1.894735e-04    2.793466e+06   -7.671912e+00    2.793474e+06    0.000000e+00    9.491767e+04    0.000000e+00    3.600360e+00    5.874368e+01   -2.009532e-14
   1.905980e-04    2.768760e+06   -6.903281e+00    2.768767e+06    0.000000e+00    9.435718e+04    0.000000e+00    3.600360e+00    5.874331e+01   -2.009472e-14
   1.917292e-04    2.744272e+06   -7.163284e+00    2.744279e+06    0.000000e+00    9.380000e+04    0.000000e+00    3.600360e+00    5.874293e+01   -2.009411e-14
   1.928671e-04    2.720000e+06   -7.205526e+00    2.720007e+06    0.000000e+00    9.324610e+04    0.000000e+00    3.600360e+00    5.874255e+01   -2.009350e-14
   1.940117e-04    2.695943e+06   -6.837926e+00    2.695950e+06    0.000000e+00    9.269547e+04    0.000000e+00    3.600360e+00    5.874217e+01   -2.009288e-14
   1.951632e-04    2.672097e+06   -7.660167e+00    2.672105e+06    0.000000e+00    9.214810e+04    0.000000e+00    3.600360e+00    5.874179e+01   -2.009226e-14
   1.963215e-04    2.648465e+06   -6.686116e+00    2.648471e+06    0.000000e+00    9.160395e+04    0.000000e+00    3.600360e+00    5.874141e+01   -2.009164e-14
   1.974866e-04    2.625038e+06   -7.983434e+00    2.625046e+06    0.000000e+00    9.106301e+04    0.000000e+00    3.600360e+00    5.874102e+01   -2.009101e-14
   1.986587e-04    2.601822e+06   -6.700289e+00    2.601828e+06    0.000000e+00    9.052526e+04    0.000000e+00    3.600360e+00    5.874063e+01   -2.009038e-14
   1.998377e-04    2.578808e+06   -7.380213e+00    2.578816e+06    0.000000e+00    8.999068e+04    0.000000e+00    3.600360e+00    5.874024e+01   -2.008975e-14
   2.010238e-04    2.556000e+06   -6.866930e+00    2.556007e+06    0.000000e+00    8.945926e+04    0.000000e+00    3.600360e+00    5.873985e+01   -2.008911e-14
   2.022168e-04    2.533392e+06   -6.952115e+00    2.533399e+06    0.000000e+00    8.893098e+04    0.000000e+00    3.600360e+00    5.873945e+01   -2.008847e-14
   2.034170e-04    2.510984e+06   -7.185662e+00    2.510991e+06    0.000000e+00    8.840581e+04    0.000000e+00    3.600360e+00    5.873906e+01   -2.008782e-14
   2.046242e-04    2.488775e+06   -6.691195e+00    2.488782e+06    0.000000e+00    8.788374e+04    0.000000e+00    3.600360e+00    5.873866e+01   -2.008717e-14
