# All units in Hartree [AU] if not specified
# Convergence: Err(φ)=4.004e-11, Err(n_e)=9.847e-11, Err(IET)=9.816e-13, Q_net=4.600e-07
# {"name":"Ar", "Z":18, "Zstar":0.852879802819178, "A":39.948,  "μ[AU]": -8.9572008162e-02, "Te[AU]": 3.507e-02, "Ti[AU]": 3.507e-02, "rs[AU]": 1.372e+01 }
   r[AU]           n[AU]           nf[AU]          nb[AU]          n_ion[AU]       φtot[AU]        δVxc/δρ[Au]     U_ei[AU]        U_ii[AU]        g_ii            
   1.000000e-04    7.290098e+06   -6.736592e-01    7.290098e+06    0.000000e+00    1.799173e+05    0.000000e+00    1.968751e+00    3.048980e+01   -8.424077e-14
   1.005935e-04    7.225644e+06   -3.942667e+00    7.225648e+06    0.000000e+00    1.788553e+05    0.000000e+00    1.968751e+00    3.048969e+01   -8.423943e-14
   1.011905e-04    7.161765e+06   -1.157658e+00    7.161766e+06    0.000000e+00    1.777996e+05    0.000000e+00    1.968751e+00    3.048959e+01   -8.423809e-14
   1.017911e-04    7.098448e+06   -1.412237e+00    7.098450e+06    0.000000e+00    1.767501e+05    0.000000e+00    1.968751e+00    3.048949e+01   -8.423673e-14
   1.023952e-04    7.035689e+06   -3.415939e+00    7.035693e+06    0.000000e+00    1.757068e+05    0.000000e+00    1.968751e+00    3.048939e+01   -8.423537e-14
   1.030029e-04    6.973490e+06   -7.538898e-01    6.973490e+06    0.000000e+00    1.746697e+05    0.000000e+00    1.968751e+00    3.048928e+01   -8.423400e-14
   1.036142e-04    6.911835e+06   -2.818014e+00    6.911838e+06    0.000000e+00    1.736386e+05    0.000000e+00    1.968751e+00    3.048918e+01   -8.423262e-14
   1.042292e-04    6.850728e+06   -1.854515e+00    6.850730e+06    0.000000e+00    1.726137e+05    0.000000e+00    1.968751e+00    3.048907e+01   -8.423124e-14
   1.048478e-04    6.790161e+06   -1.053338e+00    6.790162e+06    0.000000e+00    1.715948e+05    0.000000e+00    1.968751e+00    3.048897e+01   -8.422984e-14
   1.054700e-04    6.730126e+06   -4.632669e+00    6.730130e+06    0.000000e+00    1.705819e+05    0.000000e+00    1.968751e+00    3.048886e+01   -8.422844e-14
   1.060960e-04    6.670627e+06   -1.051541e+00    6.670628e+06    0.000000e+00    1.695750e+05    0.000000e+00    1.968751e+00    3.048876e+01   -8.422703e-14
   1.067257e-04    6.611651e+06   -2.016026e+00    6.611653e+06    0.000000e+00    1.685740e+05    0.000000e+00    1.968751e+00    3.048865e+01   -8.422561e-14
   1.073591e-04    6.553195e+06   -2.717349e+00    6.553198e+06    0.000000e+00    1.675790e+05    0.000000e+00    1.968751e+00    3.048854e+01   -8.422418e-14
   1.079962e-04    6.495259e+06   -9.518347e-01    6.495260e+06    0.000000e+00    1.665898e+05    0.000000e+00    1.968751e+00    3.048843e+01   -8.422274e-14
   1.086372e-04    6.437831e+06   -3.585957e+00    6.437834e+06    0.000000e+00    1.656064e+05    0.000000e+00    1.968751e+00    3.048832e+01   -8.422130e-14
   1.092819e-04    6.380914e+06   -1.549401e+00    6.380916e+06    0.000000e+00    1.646289e+05    0.000000e+00    1.968751e+00    3.048821e+01   -8.421985e-14
   1.099305e-04    6.324499e+06   -1.503012e+00    6.324501e+06    0.000000e+00    1.636571e+05    0.000000e+00    1.968751e+00    3.048810e+01   -8.421838e-14
   1.105830e-04    6.268580e+06   -3.719374e+00    6.268584e+06    0.000000e+00    1.626910e+05    0.000000e+00    1.968751e+00    3.048799e+01   -8.421691e-14
   1.112393e-04    6.213161e+06   -1.075158e+00    6.213162e+06    0.000000e+00    1.617307e+05    0.000000e+00    1.968751e+00    3.048788e+01   -8.421543e-14
   1.118995e-04    6.158226e+06   -2.654977e+00    6.158229e+06    0.000000e+00    1.607760e+05    0.000000e+00    1.968751e+00    3.048777e+01   -8.421395e-14
   1.125636e-04    6.103780e+06   -2.214265e+00    6.103782e+06    0.000000e+00    1.598269e+05    0.000000e+00    1.968751e+00    3.048765e+01   -8.421245e-14
   1.132316e-04    6.049815e+06   -1.243356e+00    6.049816e+06    0.000000e+00    1.588835e+05    0.000000e+00    1.968751e+00    3.048754e+01   -8.421094e-14
   1.139037e-04    5.996323e+06   -4.360705e+00    5.996327e+06    0.000000e+00    1.579456e+05    0.000000e+00    1.968751e+00    3.048743e+01   -8.420943e-14
   1.145797e-04    5.943310e+06   -1.392990e+00    5.943311e+06    0.000000e+00    1.570133e+05    0.000000e+00    1.968751e+00    3.048731e+01   -8.420790e-14
   1.152597e-04    5.890762e+06   -2.005695e+00    5.890764e+06    0.000000e+00    1.560864e+05    0.000000e+00    1.968751e+00    3.048719e+01   -8.420637e-14
   1.159437e-04    5.838677e+06   -3.020497e+00    5.838680e+06    0.000000e+00    1.551650e+05    0.000000e+00    1.968751e+00    3.048708e+01   -8.420483e-14
   1.166319e-04    5.787056e+06   -1.205564e+00    5.787058e+06    0.000000e+00    1.542491e+05    0.000000e+00    1.968751e+00    3.048696e+01   -8.420328e-14
   1.173241e-04    5.735888e+06   -3.316057e+00    5.735891e+06    0.000000e+00    1.533385e+05    0.000000e+00    1.968751e+00    3.048684e+01   -8.420172e-14
   1.180204e-04    5.685175e+06   -1.878179e+00    5.685177e+06    0.000000e+00    1.524333e+05    0.000000e+00    1.968751e+00    3.048672e+01   -8.420015e-14
   1.187208e-04    5.634909e+06   -1.604883e+00    5.634911e+06    0.000000e+00    1.515335e+05    0.000000e+00    1.968751e+00    3.048660e+01   -8.419857e-14
   1.194254e-04    5.585085e+06   -3.944597e+00    5.585089e+06    0.000000e+00    1.506390e+05    0.000000e+00    1.968751e+00    3.048648e+01   -8.419698e-14
   1.201342e-04    5.535706e+06   -1.364163e+00    5.535708e+06    0.000000e+00    1.497497e+05    0.000000e+00    1.968751e+00    3.048636e+01   -8.419538e-14
   1.208472e-04    5.486760e+06   -2.546421e+00    5.486763e+06    0.000000e+00    1.488657e+05    0.000000e+00    1.968751e+00    3.048624e+01   -8.419378e-14
   1.215644e-04    5.438248e+06   -2.507163e+00    5.438250e+06    0.000000e+00    1.479870e+05    0.000000e+00    1.968751e+00    3.048612e+01   -8.419216e-14
   1.222859e-04    5.390165e+06   -1.422797e+00    5.390167e+06    0.000000e+00    1.471134e+05    0.000000e+00    1.968751e+00    3.048600e+01   -8.419054e-14
   1.230117e-04    5.342504e+06   -3.987675e+00    5.342508e+06    0.000000e+00    1.462449e+05    0.000000e+00    1.968751e+00    3.048587e+01   -8.418890e-14
   1.237417e-04    5.295269e+06   -1.688089e+00    5.295271e+06    0.000000e+00    1.453816e+05    0.000000e+00    1.968751e+00    3.048575e+01   -8.418725e-14
   1.244761e-04    5.248449e+06   -2.020540e+00    5.248451e+06    0.000000e+00    1.445234e+05    0.000000e+00    1.968751e+00    3.048562e+01   -8.418560e-14
   1.252149e-04    5.202042e+06   -3.253220e+00    5.202045e+06    0.000000e+00    1.436702e+05    0.000000e+00    1.968751e+00    3.048550e+01   -8.418393e-14
   1.259580e-04    5.156047e+06   -1.431757e+00    5.156049e+06    0.000000e+00    1.428221e+05    0.000000e+00    1.968751e+00    3.048537e+01   -8.418226e-14
   1.267056e-04    5.110456e+06   -3.112844e+00    5.110460e+06    0.000000e+00    1.419790e+05    0.000000e+00    1.968751e+00    3.048524e+01   -8.418058e-14
   1.274576e-04    5.065271e+06   -2.148324e+00    5.065273e+06    0.000000e+00    1.411408e+05    0.000000e+00    1.968751e+00    3.048511e+01   -8.417888e-14
   1.282140e-04    5.020484e+06   -1.709670e+00    5.020486e+06    0.000000e+00    1.403076e+05    0.000000e+00    1.968751e+00    3.048499e+01   -8.417718e-14
   1.289750e-04    4.976091e+06   -4.100084e+00    4.976095e+06    0.000000e+00    1.394793e+05    0.000000e+00    1.968751e+00    3.048486e+01   -8.417546e-14
   1.297404e-04    4.932095e+06   -1.606832e+00    4.932096e+06    0.000000e+00    1.386559e+05    0.000000e+00    1.968751e+00    3.048473e+01   -8.417374e-14
   1.305104e-04    4.888484e+06   -2.476333e+00    4.888486e+06    0.000000e+00    1.378374e+05    0.000000e+00    1.968751e+00    3.048459e+01   -8.417200e-14
   1.312850e-04    4.845259e+06   -2.735056e+00    4.845262e+06    0.000000e+00    1.370236e+05    0.000000e+00    1.968751e+00    3.048446e+01   -8.417026e-14
   1.320642e-04    4.802418e+06   -1.590206e+00    4.802419e+06    0.000000e+00    1.362147e+05    0.000000e+00    1.968751e+00    3.048433e+01   -8.416850e-14
   1.328480e-04    4.759952e+06   -3.694088e+00    4.759956e+06    0.000000e+00    1.354106e+05    0.000000e+00    1.968751e+00    3.048420e+01   -8.416673e-14
   1.336364e-04    4.717865e+06   -1.924821e+00    4.717867e+06    0.000000e+00    1.346112e+05    0.000000e+00    1.968751e+00    3.048406e+01   -8.416496e-14
   1.344295e-04    4.676149e+06   -2.050716e+00    4.676151e+06    0.000000e+00    1.338165e+05    0.000000e+00    1.968751e+00    3.048393e+01   -8.416317e-14
   1.352274e-04    4.634800e+06   -3.429385e+00    4.634803e+06    0.000000e+00    1.330265e+05    0.000000e+00    1.968751e+00    3.048379e+01   -8.416137e-14
   1.360299e-04    4.593819e+06   -1.632734e+00    4.593821e+06    0.000000e+00    1.322412e+05    0.000000e+00    1.968751e+00    3.048365e+01   -8.415956e-14
   1.368372e-04    4.553198e+06   -2.960370e+00    4.553201e+06    0.000000e+00    1.314605e+05    0.000000e+00    1.968751e+00    3.048352e+01   -8.415775e-14
   1.376494e-04    4.512937e+06   -2.365131e+00    4.512940e+06    0.000000e+00    1.306844e+05    0.000000e+00    1.968751e+00    3.048338e+01   -8.415592e-14
   1.384663e-04    4.473033e+06   -1.814786e+00    4.473035e+06    0.000000e+00    1.299129e+05    0.000000e+00    1.968751e+00    3.048324e+01   -8.415407e-14
   1.392881e-04    4.433478e+06   -4.195636e+00    4.433482e+06    0.000000e+00    1.291459e+05    0.000000e+00    1.968751e+00    3.048310e+01   -8.415222e-14
   1.401148e-04    4.394278e+06   -1.814173e+00    4.394279e+06    0.000000e+00    1.283835e+05    0.000000e+00    1.968751e+00    3.048296e+01   -8.415036e-14
   1.409463e-04    4.355421e+06   -2.433237e+00    4.355423e+06    0.000000e+00    1.276255e+05    0.000000e+00    1.968751e+00    3.048281e+01   -8.414849e-14
   1.417828e-04    4.316907e+06   -2.914988e+00    4.316910e+06    0.000000e+00    1.268721e+05    0.000000e+00    1.968751e+00    3.048267e+01   -8.414660e-14
   1.426243e-04    4.278736e+06   -1.733591e+00    4.278738e+06    0.000000e+00    1.261230e+05    0.000000e+00    1.968751e+00    3.048253e+01   -8.414471e-14
   1.434708e-04    4.240899e+06   -3.462470e+00    4.240903e+06    0.000000e+00    1.253784e+05    0.000000e+00    1.968751e+00    3.048238e+01   -8.414280e-14
   1.443223e-04    4.203400e+06   -2.121695e+00    4.203402e+06    0.000000e+00    1.246382e+05    0.000000e+00    1.968751e+00    3.048224e+01   -8.414088e-14
   1.451788e-04    4.166231e+06   -2.092700e+00    4.166233e+06    0.000000e+00    1.239024e+05    0.000000e+00    1.968751e+00    3.048209e+01   -8.413895e-14
   1.460404e-04    4.129388e+06   -3.538700e+00    4.129392e+06    0.000000e+00    1.231709e+05    0.000000e+00    1.968751e+00    3.048195e+01   -8.413701e-14
   1.469072e-04    4.092875e+06   -1.798195e+00    4.092877e+06    0.000000e+00    1.224437e+05    0.000000e+00    1.968751e+00    3.048180e+01   -8.413506e-14
   1.477791e-04    4.056682e+06   -2.851622e+00    4.056685e+06    0.000000e+00    1.217208e+05    0.000000e+00    1.968751e+00    3.048165e+01   -8.413309e-14
   1.486561e-04    4.020810e+06   -2.534833e+00    4.020812e+06    0.000000e+00    1.210022e+05    0.000000e+00    1.968751e+00    3.048150e+01   -8.413112e-14
   1.495384e-04    3.985255e+06   -1.910271e+00    3.985257e+06    0.000000e+00    1.202878e+05    0.000000e+00    1.968751e+00    3.048135e+01   -8.412913e-14
   1.504259e-04    3.950012e+06   -3.974035e+00    3.950016e+06    0.000000e+00    1.195776e+05    0.000000e+00    1.968751e+00    3.048120e+01   -8.412713e-14
   1.513187e-04    3.915084e+06   -1.990876e+00    3.915086e+06    0.000000e+00    1.188716e+05    0.000000e+00    1.968751e+00    3.048105e+01   -8.412512e-14
   1.522167e-04    3.880463e+06   -2.408408e+00    3.880466e+06    0.000000e+00    1.181698e+05    0.000000e+00    1.968751e+00    3.048089e+01   -8.412310e-14
   1.531201e-04    3.846148e+06   -3.033351e+00    3.846151e+06    0.000000e+00    1.174721e+05    0.000000e+00    1.968751e+00    3.048074e+01   -8.412106e-14
   1.540289e-04    3.812137e+06   -1.860741e+00    3.812139e+06    0.000000e+00    1.167786e+05    0.000000e+00    1.968751e+00    3.048058e+01   -8.411901e-14
   1.549430e-04    3.778425e+06   -3.279014e+00    3.778428e+06    0.000000e+00    1.160891e+05    0.000000e+00    1.968751e+00    3.048043e+01   -8.411696e-14
   1.558626e-04    3.745013e+06   -2.282721e+00    3.745015e+06    0.000000e+00    1.154037e+05    0.000000e+00    1.968751e+00    3.048027e+01   -8.411488e-14
   1.567877e-04    3.711896e+06   -2.130435e+00    3.711898e+06    0.000000e+00    1.147223e+05    0.000000e+00    1.968751e+00    3.048011e+01   -8.411280e-14
   1.577182e-04    3.679069e+06   -3.611109e+00    3.679073e+06    0.000000e+00    1.140450e+05    0.000000e+00    1.968751e+00    3.047996e+01   -8.411070e-14
   1.586542e-04    3.646536e+06   -1.939196e+00    3.646538e+06    0.000000e+00    1.133717e+05    0.000000e+00    1.968751e+00    3.047980e+01   -8.410860e-14
   1.595958e-04    3.614288e+06   -2.759408e+00    3.614291e+06    0.000000e+00    1.127023e+05    0.000000e+00    1.968751e+00    3.047964e+01   -8.410648e-14
   1.605430e-04    3.582326e+06   -2.662706e+00    3.582329e+06    0.000000e+00    1.120369e+05    0.000000e+00    1.968751e+00    3.047947e+01   -8.410434e-14
   1.614958e-04    3.550647e+06   -1.990733e+00    3.550649e+06    0.000000e+00    1.113754e+05    0.000000e+00    1.968751e+00    3.047931e+01   -8.410220e-14
   1.624543e-04    3.519246e+06   -3.729236e+00    3.519250e+06    0.000000e+00    1.107178e+05    0.000000e+00    1.968751e+00    3.047915e+01   -8.410004e-14
   1.634185e-04    3.488126e+06   -2.122482e+00    3.488128e+06    0.000000e+00    1.100641e+05    0.000000e+00    1.968751e+00    3.047898e+01   -8.409787e-14
   1.643883e-04    3.457279e+06   -2.399815e+00    3.457281e+06    0.000000e+00    1.094142e+05    0.000000e+00    1.968751e+00    3.047882e+01   -8.409568e-14
   1.653640e-04    3.426704e+06   -3.115270e+00    3.426707e+06    0.000000e+00    1.087682e+05    0.000000e+00    1.968751e+00    3.047865e+01   -8.409348e-14
   1.663454e-04    3.396401e+06   -1.968040e+00    3.396403e+06    0.000000e+00    1.081260e+05    0.000000e+00    1.968751e+00    3.047848e+01   -8.409127e-14
   1.673327e-04    3.366363e+06   -3.132687e+00    3.366366e+06    0.000000e+00    1.074876e+05    0.000000e+00    1.968751e+00    3.047832e+01   -8.408905e-14
   1.683258e-04    3.336593e+06   -2.399363e+00    3.336596e+06    0.000000e+00    1.068529e+05    0.000000e+00    1.968751e+00    3.047815e+01   -8.408681e-14
   1.693248e-04    3.307086e+06   -2.170062e+00    3.307088e+06    0.000000e+00    1.062220e+05    0.000000e+00    1.968751e+00    3.047798e+01   -8.408456e-14
   1.703297e-04    3.277838e+06   -3.632514e+00    3.277842e+06    0.000000e+00    1.055948e+05    0.000000e+00    1.968751e+00    3.047781e+01   -8.408230e-14
   1.713406e-04    3.248851e+06   -2.055012e+00    3.248853e+06    0.000000e+00    1.049713e+05    0.000000e+00    1.968751e+00    3.047763e+01   -8.408002e-14
   1.723575e-04    3.220119e+06   -2.696657e+00    3.220121e+06    0.000000e+00    1.043515e+05    0.000000e+00    1.968751e+00    3.047746e+01   -8.407773e-14
   1.733804e-04    3.191641e+06   -2.746262e+00    3.191643e+06    0.000000e+00    1.037354e+05    0.000000e+00    1.968751e+00    3.047729e+01   -8.407543e-14
   1.744094e-04    3.163415e+06   -2.058995e+00    3.163417e+06    0.000000e+00    1.031229e+05    0.000000e+00    1.968751e+00    3.047711e+01   -8.407311e-14
   1.754445e-04    3.135437e+06   -3.520442e+00    3.135440e+06    0.000000e+00    1.025140e+05    0.000000e+00    1.968751e+00    3.047693e+01   -8.407078e-14
   1.764858e-04    3.107709e+06   -2.233017e+00    3.107711e+06    0.000000e+00    1.019087e+05    0.000000e+00    1.968751e+00    3.047676e+01   -8.406844e-14
   1.775332e-04    3.080224e+06   -2.387657e+00    3.080226e+06    0.000000e+00    1.013069e+05    0.000000e+00    1.968751e+00    3.047658e+01   -8.406608e-14
   1.785869e-04    3.052982e+06   -3.159003e+00    3.052985e+06    0.000000e+00    1.007087e+05    0.000000e+00    1.968751e+00    3.047640e+01   -8.406371e-14
   1.796468e-04    3.025982e+06   -2.055395e+00    3.025984e+06    0.000000e+00    1.001141e+05    0.000000e+00    1.968751e+00    3.047622e+01   -8.406132e-14
   1.807130e-04    2.999219e+06   -3.018167e+00    2.999222e+06    0.000000e+00    9.952292e+04    0.000000e+00    1.968751e+00    3.047604e+01   -8.405892e-14
   1.817855e-04    2.972695e+06   -2.481160e+00    2.972697e+06    0.000000e+00    9.893526e+04    0.000000e+00    1.968751e+00    3.047585e+01   -8.405651e-14
   1.828644e-04    2.946404e+06   -2.202106e+00    2.946406e+06    0.000000e+00    9.835107e+04    0.000000e+00    1.968751e+00    3.047567e+01   -8.405408e-14
   1.839497e-04    2.920344e+06   -3.623827e+00    2.920348e+06    0.000000e+00    9.777032e+04    0.000000e+00    1.968751e+00    3.047548e+01   -8.405163e-14
   1.850414e-04    2.894517e+06   -2.143828e+00    2.894519e+06    0.000000e+00    9.719300e+04    0.000000e+00    1.968751e+00    3.047530e+01   -8.404917e-14
   1.861396e-04    2.868917e+06   -2.640404e+00    2.868919e+06    0.000000e+00    9.661908e+04    0.000000e+00    1.968751e+00    3.047511e+01   -8.404670e-14
   1.872443e-04    2.843543e+06   -2.801957e+00    2.843546e+06    0.000000e+00    9.604855e+04    0.000000e+00    1.968751e+00    3.047492e+01   -8.404422e-14
   1.883556e-04    2.818394e+06   -2.119470e+00    2.818396e+06    0.000000e+00    9.548139e+04    0.000000e+00    1.968751e+00    3.047473e+01   -8.404171e-14
   1.894735e-04    2.793466e+06   -3.352250e+00    2.793469e+06    0.000000e+00    9.491757e+04    0.000000e+00    1.968751e+00    3.047454e+01   -8.403920e-14
   1.905980e-04    2.768760e+06   -2.306572e+00    2.768763e+06    0.000000e+00    9.435708e+04    0.000000e+00    1.968751e+00    3.047435e+01   -8.403667e-14
   1.917292e-04    2.744272e+06   -2.386866e+00    2.744274e+06    0.000000e+00    9.379990e+04    0.000000e+00    1.968751e+00    3.047416e+01   -8.403412e-14
   1.928671e-04    2.719999e+06   -3.170110e+00    2.720003e+06    0.000000e+00    9.324600e+04    0.000000e+00    1.968751e+00    3.047396e+01   -8.403156e-14
   1.940117e-04    2.695943e+06   -2.123869e+00    2.695945e+06    0.000000e+00    9.269537e+04    0.000000e+00    1.968751e+00    3.047377e+01   -8.402898e-14
   1.951632e-04    2.672098e+06   -2.917805e+00    2.672101e+06    0.000000e+00    9.214800e+04    0.000000e+00    1.968751e+00    3.047357e+01   -8.402639e-14
   1.963215e-04    2.648464e+06   -2.540762e+00    2.648467e+06    0.000000e+00    9.160385e+04    0.000000e+00    1.968751e+00    3.047337e+01   -8.402378e-14
   1.974866e-04    2.625040e+06   -2.229297e+00    2.625042e+06    0.000000e+00    9.106291e+04    0.000000e+00    1.968751e+00    3.047318e+01   -8.402116e-14
   1.986587e-04    2.601821e+06   -3.585732e+00    2.601824e+06    0.000000e+00    9.052516e+04    0.000000e+00    1.968751e+00    3.047298e+01   -8.401852e-14
   1.998377e-04    2.578809e+06   -2.210622e+00    2.578811e+06    0.000000e+00    8.999058e+04    0.000000e+00    1.968751e+00    3.047278e+01   -8.401587e-14
   2.010238e-04    2.556000e+06   -2.599998e+00    2.556002e+06    0.000000e+00    8.945916e+04    0.000000e+00    1.968751e+00    3.047257e+01   -8.401320e-14
   2.022168e-04    2.533392e+06   -2.822719e+00    2.533395e+06    0.000000e+00    8.893088e+04    0.000000e+00    1.968751e+00    3.047237e+01   -8.401051e-14
   2.034170e-04    2.510985e+06   -2.162293e+00    2.510987e+06    0.000000e+00    8.840571e+04    0.000000e+00    1.968751e+00    3.047216e+01   -8.400781e-14
   2.046242e-04    2.488774e+06   -3.211360e+00    2.488777e+06    0.000000e+00    8.788364e+04    0.000000e+00    1.968751e+00    3.047196e+01   -8.400509e-14
