# All units in Hartree [AU] if not specified
# Convergence: Err(φ)=3.986e-11, Err(n_e)=9.709e-11, Err(IET)=9.987e-13, Q_net=6.367e-07
# {"name":"Ar", "Z":18, "Zstar":0.3359940779466868, "A":39.948,  "μ[AU]": 1.9883611335e-03, "Te[AU]": 1.903e-03, "Ti[AU]": 1.903e-03, "rs[AU]": 1.372e+01 }
   r[AU]           U_ei[AU]        U_ii[AU]        g_ii            
   6.857824e-02   -1.840136e-01    2.966215e+00    0.000000e+00
   1.371565e-01   -1.506162e-01    1.291132e+00    0.000000e+00
   2.057347e-01   -1.340260e-01    8.222839e-01    0.000000e+00
   2.743130e-01   -1.233802e-01    5.455237e-01    0.000000e+00
   3.428912e-01   -1.156307e-01    4.168191e-01    0.000000e+00
   4.114694e-01   -1.171679e-01    3.146602e-01    0.000000e+00
   4.800477e-01   -1.119959e-01    2.594761e-01    0.000000e+00
   5.486259e-01   -1.075978e-01    2.091098e-01    0.000000e+00
   6.172042e-01   -1.038656e-01    1.800910e-01    0.000000e+00
   6.857824e-01   -1.008555e-01    1.510743e-01    0.000000e+00
   7.543606e-01   -9.793750e-02    1.337992e-01    0.000000e+00
   8.229389e-01   -9.540840e-02    1.152947e-01    0.000000e+00
   8.915171e-01   -9.300455e-02    1.040738e-01    0.000000e+00
   9.600953e-01   -9.086347e-02    9.137678e-02    0.000000e+00
   1.028674e+00   -8.901578e-02    8.359031e-02    0.000000e+00
   1.097252e+00   -8.721730e-02    7.438005e-02    0.000000e+00
   1.165830e+00   -8.542061e-02    6.868884e-02    0.000000e+00
   1.234408e+00   -8.396576e-02    6.171151e-02    0.000000e+00
   1.302987e+00   -8.249254e-02    5.737572e-02    0.000000e+00
   1.371565e+00   -8.109587e-02    5.190514e-02    0.000000e+00
   1.440143e+00   -7.973192e-02    4.849025e-02    0.000000e+00
   1.508721e+00   -7.859993e-02    4.408151e-02    0.000000e+00
   1.577299e+00   -7.739669e-02    4.131895e-02    0.000000e+00
   1.645878e+00   -7.628535e-02    3.768636e-02    0.000000e+00
   1.714456e+00   -7.524868e-02    3.540273e-02    0.000000e+00
   1.783034e+00   -7.426877e-02    3.235526e-02    0.000000e+00
   1.851612e+00   -7.333340e-02    3.043420e-02    0.000000e+00
   1.920191e+00   -7.240716e-02    2.783958e-02    0.000000e+00
   1.988769e+00   -7.154894e-02    2.620031e-02    0.000000e+00
   2.057347e+00   -7.070851e-02    2.396409e-02    0.000000e+00
   2.125925e+00   -6.991944e-02    2.254880e-02    0.000000e+00
   2.194504e+00   -6.913034e-02    2.060167e-02    0.000000e+00
   2.263082e+00   -6.838879e-02    1.936787e-02    0.000000e+00
   2.331660e+00   -6.767940e-02    1.765778e-02    0.000000e+00
   2.400238e+00   -6.698268e-02    1.657346e-02    0.000000e+00
   2.468817e+00   -6.631014e-02    1.506049e-02    3.307576e-12
   2.537395e+00   -6.565343e-02    1.410104e-02    7.695178e-12
   2.605973e+00   -6.502220e-02    1.275401e-02    1.925216e-11
   2.674551e+00   -6.440641e-02    1.190015e-02    3.268852e-11
   2.743130e+00   -6.380948e-02    1.069430e-02    6.593837e-11
   2.811708e+00   -6.322296e-02    9.930700e-03    1.025704e-10
   2.880286e+00   -6.265357e-02    8.846102e-03    1.884999e-10
   2.948864e+00   -6.210176e-02    8.160360e-03    2.788276e-10
   3.017443e+00   -6.156785e-02    7.180770e-03    4.813430e-10
   3.086021e+00   -6.104368e-02    6.562756e-03    6.857270e-10
   3.154599e+00   -6.052694e-02    5.674783e-03    1.126367e-09
   3.223177e+00   -6.002789e-02    5.116119e-03    1.555581e-09
   3.291755e+00   -5.953994e-02    4.308621e-03    2.450001e-09
   3.360334e+00   -5.905729e-02    3.802309e-03    3.294613e-09
   3.428912e+00   -5.859151e-02    3.065926e-03    5.003006e-09
   3.497490e+00   -5.812919e-02    2.606072e-03    6.572790e-09
   3.566068e+00   -5.768024e-02    1.932884e-03    9.665872e-09
   3.634647e+00   -5.723822e-02    1.514481e-03    1.244020e-08
   3.703225e+00   -5.680523e-02    8.977332e-04    1.778141e-08
   3.771803e+00   -5.637991e-02    5.165005e-04    2.247072e-08
   3.840381e+00   -5.596319e-02   -4.960254e-05    3.131450e-08
   3.908960e+00   -5.555258e-02   -3.973506e-04    3.893243e-08
   3.977538e+00   -5.515144e-02   -9.178144e-04    5.303730e-08
   4.046116e+00   -5.475366e-02   -1.235270e-03    6.498246e-08
   4.114694e+00   -5.436621e-02   -1.714440e-03    8.673697e-08
   4.183273e+00   -5.398122e-02   -2.004383e-03    1.048830e-07
   4.251851e+00   -5.360420e-02   -2.446053e-03    1.374423e-07
   4.320429e+00   -5.323420e-02   -2.710917e-03    1.642347e-07
   4.389007e+00   -5.286741e-02   -3.118412e-03    2.116646e-07
   4.457586e+00   -5.250786e-02   -3.360337e-03    2.502223e-07
   4.526164e+00   -5.215333e-02   -3.736590e-03    3.176489e-07
   4.594742e+00   -5.180230e-02   -3.957467e-03    3.718699e-07
   4.663320e+00   -5.145794e-02   -4.305069e-03    4.656322e-07
   4.731898e+00   -5.111864e-02   -4.506577e-03    5.403009e-07
   4.800477e+00   -5.078196e-02   -4.827832e-03    6.681043e-07
   4.869055e+00   -5.045049e-02   -5.011465e-03    7.690017e-07
   4.937633e+00   -5.012446e-02   -5.308426e-03    9.400721e-07
   5.006211e+00   -4.980152e-02   -5.475521e-03    1.074086e-06
   5.074790e+00   -4.948221e-02   -5.750027e-03    1.299324e-06
   5.143368e+00   -4.916737e-02   -5.901783e-03    1.474565e-06
   5.211946e+00   -4.885699e-02   -6.155485e-03    1.766697e-06
   5.280524e+00   -4.854958e-02   -6.292982e-03    1.992610e-06
   5.349103e+00   -4.824528e-02   -6.527365e-03    2.366350e-06
   5.417681e+00   -4.794471e-02   -6.651580e-03    2.653838e-06
   5.486259e+00   -4.764824e-02   -6.867988e-03    3.126039e-06
   5.554837e+00   -4.735500e-02   -6.979806e-03    3.487591e-06
   5.623416e+00   -4.706403e-02   -7.179456e-03    4.077415e-06
   5.691994e+00   -4.677650e-02   -7.279681e-03    4.527235e-06
   5.760572e+00   -4.649219e-02   -7.463680e-03    5.256324e-06
   5.829150e+00   -4.621078e-02   -7.553046e-03    5.810484e-06
   5.897729e+00   -4.593253e-02   -7.722403e-03    6.703144e-06
   5.966307e+00   -4.565688e-02   -7.801580e-03    7.379738e-06
   6.034885e+00   -4.538348e-02   -7.957216e-03    8.463144e-06
   6.103463e+00   -4.511300e-02   -8.026820e-03    9.282469e-06
   6.172042e+00   -4.484524e-02   -8.169580e-03    1.058688e-05
   6.240620e+00   -4.457994e-02   -8.230176e-03    1.157163e-05
   6.309198e+00   -4.431726e-02   -8.360836e-03    1.313064e-05
   6.377776e+00   -4.405713e-02   -8.412944e-03    1.430612e-05
   6.446354e+00   -4.379899e-02   -8.532218e-03    1.615693e-05
   6.514933e+00   -4.354315e-02   -8.576321e-03    1.755132e-05
   6.583511e+00   -4.328957e-02   -8.684867e-03    1.973503e-05
   6.652089e+00   -4.303822e-02   -8.721410e-03    2.137964e-05
   6.720667e+00   -4.278912e-02   -8.819838e-03    2.394162e-05
   6.789246e+00   -4.254207e-02   -8.849237e-03    2.587121e-05
   6.857824e+00   -4.229699e-02   -8.938110e-03    2.886145e-05
   6.926402e+00   -4.205425e-02   -8.960749e-03    3.111461e-05
   6.994980e+00   -4.181323e-02   -9.040594e-03    3.458817e-05
   7.063559e+00   -4.157420e-02   -9.056832e-03    3.720766e-05
   7.132137e+00   -4.133706e-02   -9.128136e-03    4.122515e-05
   7.200715e+00   -4.110152e-02   -9.138309e-03    4.425838e-05
   7.269293e+00   -4.086810e-02   -9.201527e-03    4.888652e-05
   7.337872e+00   -4.063634e-02   -9.205950e-03    5.238603e-05
   7.406450e+00   -4.040625e-02   -9.261506e-03    5.769821e-05
   7.475028e+00   -4.017812e-02   -9.260474e-03    6.172221e-05
   7.543606e+00   -3.995140e-02   -9.308768e-03    6.779920e-05
   7.612185e+00   -3.972657e-02   -9.302558e-03    7.241221e-05
   7.680763e+00   -3.950323e-02   -9.343961e-03    7.934289e-05
   7.749341e+00   -3.928156e-02   -9.332835e-03    8.461639e-05
   7.817919e+00   -3.906138e-02   -9.367699e-03    9.249858e-05
   7.886497e+00   -3.884280e-02   -9.351903e-03    9.851178e-05
   7.955076e+00   -3.862567e-02   -9.380557e-03    1.074532e-04
   8.023654e+00   -3.841013e-02   -9.360324e-03    1.142939e-04
   8.092232e+00   -3.819588e-02   -9.383080e-03    1.244131e-04
   8.160810e+00   -3.798327e-02   -9.358630e-03    1.321784e-04
   8.229389e+00   -3.777197e-02   -9.375781e-03    1.436060e-04
   8.297967e+00   -3.756203e-02   -9.347325e-03    1.524039e-04
   8.366545e+00   -3.735353e-02   -9.359147e-03    1.652837e-04
   8.435123e+00   -3.714624e-02   -9.326884e-03    1.752334e-04
   8.503702e+00   -3.694046e-02   -9.333640e-03    1.897238e-04
   8.572280e+00   -3.673593e-02   -9.297758e-03    2.009577e-04
   8.640858e+00   -3.653263e-02   -9.299698e-03    2.172333e-04
   8.709436e+00   -3.633068e-02   -9.260379e-03    2.298979e-04
   8.778015e+00   -3.612998e-02   -9.257738e-03    2.481509e-04
   8.846593e+00   -3.593050e-02   -9.215153e-03    2.624084e-04
   8.915171e+00   -3.573223e-02   -9.208158e-03    2.828507e-04
   8.983749e+00   -3.553528e-02   -9.162472e-03    2.988808e-04
   9.052328e+00   -3.533943e-02   -9.151335e-03    3.217457e-04
   9.120906e+00   -3.514474e-02   -9.102705e-03    3.397472e-04
   9.189484e+00   -3.495133e-02   -9.087631e-03    3.652918e-04
   9.258062e+00   -3.475902e-02   -9.036208e-03    3.854847e-04
   9.326640e+00   -3.456784e-02   -9.017391e-03    4.139921e-04
   9.395219e+00   -3.437774e-02   -8.963321e-03    4.366197e-04
   9.463797e+00   -3.418891e-02   -8.940948e-03    4.684016e-04
   9.532375e+00   -3.400112e-02   -8.884368e-03    4.937330e-04
   9.600953e+00   -3.381439e-02   -8.858616e-03    5.291324e-04
   9.669532e+00   -3.362879e-02   -8.799662e-03    5.574649e-04
   9.738110e+00   -3.344424e-02   -8.770702e-03    5.968596e-04
   9.806688e+00   -3.326087e-02   -8.709500e-03    6.285214e-04
   9.875266e+00   -3.307849e-02   -8.677496e-03    6.723269e-04
   9.943845e+00   -3.289716e-02   -8.614171e-03    7.076806e-04
   1.001242e+01   -3.271688e-02   -8.579280e-03    7.563536e-04
   1.008100e+01   -3.253758e-02   -8.513951e-03    7.957991e-04
   1.014958e+01   -3.235945e-02   -8.476323e-03    8.498420e-04
   1.021816e+01   -3.218230e-02   -8.409106e-03    8.938203e-04
   1.028674e+01   -3.200620e-02   -8.368885e-03    9.537849e-04
   1.035531e+01   -3.183109e-02   -8.299892e-03    1.002782e-03
   1.042389e+01   -3.165698e-02   -8.257218e-03    1.069274e-03
   1.049247e+01   -3.148388e-02   -8.186555e-03    1.123825e-03
   1.056105e+01   -3.131176e-02   -8.141563e-03    1.197510e-03
   1.062963e+01   -3.114066e-02   -8.069335e-03    1.258204e-03
   1.069821e+01   -3.097053e-02   -8.022154e-03    1.339812e-03
   1.076678e+01   -3.080149e-02   -7.948461e-03    1.407296e-03
   1.083536e+01   -3.063340e-02   -7.899216e-03    1.497626e-03
   1.090394e+01   -3.046633e-02   -7.824156e-03    1.572613e-03
   1.097252e+01   -3.030021e-02   -7.772966e-03    1.672541e-03
   1.104110e+01   -3.013509e-02   -7.696634e-03    1.755812e-03
   1.110967e+01   -2.997094e-02   -7.643617e-03    1.866299e-03
   1.117825e+01   -2.980779e-02   -7.566104e-03    1.958711e-03
   1.124683e+01   -2.964560e-02   -7.511371e-03    2.080804e-03
   1.131541e+01   -2.948441e-02   -7.432767e-03    2.183298e-03
   1.138399e+01   -2.932419e-02   -7.376426e-03    2.318146e-03
   1.145257e+01   -2.916496e-02   -7.296817e-03    2.431750e-03
   1.152114e+01   -2.900672e-02   -7.238975e-03    2.580607e-03
   1.158972e+01   -2.884946e-02   -7.158444e-03    2.706447e-03
   1.165830e+01   -2.869319e-02   -7.099201e-03    2.870681e-03
   1.172688e+01   -2.853791e-02   -7.017831e-03    3.009989e-03
   1.179546e+01   -2.838362e-02   -6.957285e-03    3.191090e-03
   1.186404e+01   -2.823033e-02   -6.875154e-03    3.345212e-03
   1.193261e+01   -2.807803e-02   -6.813402e-03    3.544806e-03
   1.200119e+01   -2.792675e-02   -6.730588e-03    3.715208e-03
   1.206977e+01   -2.777646e-02   -6.667721e-03    3.935064e-03
   1.213835e+01   -2.762720e-02   -6.584297e-03    4.123345e-03
   1.220693e+01   -2.747895e-02   -6.520405e-03    4.365387e-03
   1.227550e+01   -2.733172e-02   -6.436445e-03    4.573289e-03
   1.234408e+01   -2.718554e-02   -6.371615e-03    4.839607e-03
   1.241266e+01   -2.704038e-02   -6.287189e-03    5.069024e-03
   1.248124e+01   -2.689629e-02   -6.221505e-03    5.361885e-03
   1.254982e+01   -2.675326e-02   -6.136682e-03    5.614873e-03
   1.261840e+01   -2.661136e-02   -6.070225e-03    5.936737e-03
   1.268697e+01   -2.647059e-02   -5.985072e-03    6.215530e-03
   1.275555e+01   -2.633089e-02   -5.917922e-03    6.569058e-03
   1.282413e+01   -2.619229e-02   -5.832504e-03    6.876074e-03
   1.289271e+01   -2.605482e-02   -5.764736e-03    7.264147e-03
   1.296129e+01   -2.591849e-02   -5.679117e-03    7.602006e-03
   1.302987e+01   -2.578328e-02   -5.610807e-03    8.027734e-03
   1.309844e+01   -2.564922e-02   -5.525047e-03    8.399268e-03
   1.316702e+01   -2.551631e-02   -5.456267e-03    8.866008e-03
   1.323560e+01   -2.538462e-02   -5.370427e-03    9.274273e-03
   1.330418e+01   -2.525427e-02   -5.301247e-03    9.785644e-03
   1.337276e+01   -2.512510e-02   -5.215385e-03    1.023394e-02
   1.344133e+01   -2.499712e-02   -5.145873e-03    1.079383e-02
   1.350991e+01   -2.487034e-02   -5.060045e-03    1.128570e-02
   1.357849e+01   -2.474475e-02   -4.990267e-03    1.189831e-02
   1.364707e+01   -2.462035e-02   -4.904529e-03    1.243757e-02
   1.371565e+01   -2.449714e-02   -4.834549e-03    1.310738e-02
   1.378423e+01   -2.437526e-02   -4.748953e-03    1.369813e-02
   1.385280e+01   -2.425459e-02   -4.678834e-03    1.442996e-02
   1.392138e+01   -2.413511e-02   -4.593433e-03    1.507659e-02
   1.398996e+01   -2.401680e-02   -4.523235e-03    1.587559e-02
   1.405854e+01   -2.389964e-02   -4.438079e-03    1.658281e-02
   1.412712e+01   -2.378363e-02   -4.367860e-03    1.745449e-02
   1.419570e+01   -2.366873e-02   -4.282999e-03    1.822732e-02
   1.426427e+01   -2.355494e-02   -4.212815e-03    1.917757e-02
   1.433285e+01   -2.344223e-02   -4.128296e-03    2.002137e-02
   1.440143e+01   -2.333060e-02   -4.058203e-03    2.105644e-02
   1.447001e+01   -2.322003e-02   -3.974072e-03    2.197692e-02
   1.453859e+01   -2.311050e-02   -3.904123e-03    2.310348e-02
   1.460716e+01   -2.300200e-02   -3.820426e-03    2.410672e-02
   1.467574e+01   -2.289452e-02   -3.750673e-03    2.533184e-02
   1.474432e+01   -2.278803e-02   -3.667451e-03    2.642428e-02
   1.481290e+01   -2.268253e-02   -3.597944e-03    2.775545e-02
   1.488148e+01   -2.257800e-02   -3.515241e-03    2.894393e-02
   1.495006e+01   -2.247444e-02   -3.446028e-03    3.038910e-02
   1.501863e+01   -2.237181e-02   -3.363885e-03    3.168084e-02
   1.508721e+01   -2.227012e-02   -3.295013e-03    3.324839e-02
   1.515579e+01   -2.216935e-02   -3.213469e-03    3.465100e-02
   1.522437e+01   -2.206949e-02   -3.144983e-03    3.634977e-02
   1.529295e+01   -2.197052e-02   -3.064076e-03    3.787129e-02
   1.536153e+01   -2.187244e-02   -2.996021e-03    3.971057e-02
   1.543010e+01   -2.177523e-02   -2.915789e-03    4.135945e-02
   1.549868e+01   -2.167888e-02   -2.848205e-03    4.334900e-02
   1.556726e+01   -2.158338e-02   -2.768683e-03    4.513409e-02
   1.563584e+01   -2.148872e-02   -2.701613e-03    4.728415e-02
   1.570442e+01   -2.139488e-02   -2.622836e-03    4.921472e-02
   1.577299e+01   -2.130186e-02   -2.556319e-03    5.153598e-02
   1.584157e+01   -2.120964e-02   -2.478320e-03    5.362170e-02
   1.591015e+01   -2.111822e-02   -2.412394e-03    5.612532e-02
   1.597873e+01   -2.102758e-02   -2.335204e-03    5.837628e-02
   1.604731e+01   -2.093772e-02   -2.269906e-03    6.107387e-02
   1.611589e+01   -2.084863e-02   -2.193558e-03    6.350055e-02
   1.618446e+01   -2.076028e-02   -2.128923e-03    6.640417e-02
   1.625304e+01   -2.067269e-02   -2.053445e-03    6.901742e-02
   1.632162e+01   -2.058583e-02   -1.989507e-03    7.213956e-02
   1.639020e+01   -2.049969e-02   -1.914930e-03    7.495061e-02
   1.645878e+01   -2.041428e-02   -1.851721e-03    7.830416e-02
   1.652736e+01   -2.032957e-02   -1.778070e-03    8.132457e-02
   1.659593e+01   -2.024557e-02   -1.715624e-03    8.492281e-02
   1.666451e+01   -2.016225e-02   -1.642926e-03    8.816447e-02
   1.673309e+01   -2.007962e-02   -1.581270e-03    9.202105e-02
   1.680167e+01   -1.999766e-02   -1.509551e-03    9.549613e-02
   1.687025e+01   -1.991637e-02   -1.448716e-03    9.962501e-02
   1.693883e+01   -1.983574e-02   -1.378000e-03    1.033459e-01
   1.700740e+01   -1.975575e-02   -1.318013e-03    1.077614e-01
   1.707598e+01   -1.967641e-02   -1.248322e-03    1.117408e-01
   1.714456e+01   -1.959771e-02   -1.189209e-03    1.164573e-01
   1.721314e+01   -1.951963e-02   -1.120566e-03    1.207080e-01
   1.728172e+01   -1.944217e-02   -1.062353e-03    1.257402e-01
   1.735029e+01   -1.936532e-02   -9.947783e-04    1.302752e-01
   1.741887e+01   -1.928908e-02   -9.374898e-04    1.356380e-01
   1.748745e+01   -1.921344e-02   -8.710030e-04    1.404701e-01
   1.755603e+01   -1.913839e-02   -8.146614e-04    1.461784e-01
   1.762461e+01   -1.906392e-02   -7.492817e-04    1.513208e-01
   1.769319e+01   -1.899003e-02   -6.939087e-04    1.573894e-01
   1.776176e+01   -1.891671e-02   -6.296539e-04    1.628549e-01
   1.783034e+01   -1.884395e-02   -5.752702e-04    1.692987e-01
   1.789892e+01   -1.877175e-02   -5.121570e-04    1.751001e-01
   1.796750e+01   -1.870010e-02   -4.587822e-04    1.819337e-01
   1.803608e+01   -1.862900e-02   -3.968263e-04    1.880837e-01
   1.810466e+01   -1.855844e-02   -3.444788e-04    1.953216e-01
   1.817323e+01   -1.848840e-02   -2.836950e-04    2.018324e-01
   1.824181e+01   -1.841890e-02   -2.323922e-04    2.094887e-01
   1.831039e+01   -1.834991e-02   -1.727943e-04    2.163721e-01
   1.837897e+01   -1.828144e-02   -1.225524e-04    2.244605e-01
   1.844755e+01   -1.821348e-02   -6.415329e-05    2.317279e-01
   1.851612e+01   -1.814603e-02   -1.498759e-05    2.402615e-01
   1.858470e+01   -1.807907e-02    4.220097e-05    2.479237e-01
   1.865328e+01   -1.801260e-02    9.027625e-05    2.569151e-01
   1.872186e+01   -1.794662e-02    1.462433e-04    2.649822e-01
   1.879044e+01   -1.788112e-02    1.932150e-04    2.744431e-01
   1.885902e+01   -1.781610e-02    2.479506e-04    2.829243e-01
   1.892759e+01   -1.775155e-02    2.938064e-04    2.928656e-01
   1.899617e+01   -1.768746e-02    3.473015e-04    3.017694e-01
   1.906475e+01   -1.762384e-02    3.920303e-04    3.122010e-01
   1.913333e+01   -1.756067e-02    4.442766e-04    3.215347e-01
   1.920191e+01   -1.749795e-02    4.878682e-04    3.324652e-01
   1.927049e+01   -1.743568e-02    5.388585e-04    3.422351e-01
   1.933906e+01   -1.737385e-02    5.813035e-04    3.536722e-01
   1.940764e+01   -1.731246e-02    6.310315e-04    3.638831e-01
   1.947622e+01   -1.725150e-02    6.723216e-04    3.758329e-01
   1.954480e+01   -1.719097e-02    7.207816e-04    3.864884e-01
   1.961338e+01   -1.713086e-02    7.609094e-04    3.989554e-01
   1.968195e+01   -1.707117e-02    8.080969e-04    4.100576e-01
   1.975053e+01   -1.701190e-02    8.470559e-04    4.230450e-01
   1.981911e+01   -1.695303e-02    8.929669e-04    4.345943e-01
   1.988769e+01   -1.689458e-02    9.307514e-04    4.481033e-01
   1.995627e+01   -1.683652e-02    9.753830e-04    4.600984e-01
   2.002485e+01   -1.677886e-02    1.011988e-03    4.741283e-01
   2.009342e+01   -1.672159e-02    1.055338e-03    4.865661e-01
   2.016200e+01   -1.666472e-02    1.090761e-03    5.011143e-01
   2.023058e+01   -1.660823e-02    1.132827e-03    5.139898e-01
   2.029916e+01   -1.655212e-02    1.167064e-03    5.290516e-01
   2.036774e+01   -1.649639e-02    1.207847e-03    5.423576e-01
   2.043632e+01   -1.644103e-02    1.240895e-03    5.579261e-01
   2.050489e+01   -1.638604e-02    1.280395e-03    5.716534e-01
   2.057347e+01   -1.633142e-02    1.312253e-03    5.877194e-01
   2.064205e+01   -1.627717e-02    1.350470e-03    6.018565e-01
   2.071063e+01   -1.622327e-02    1.381139e-03    6.184083e-01
   2.077921e+01   -1.616973e-02    1.418075e-03    6.329415e-01
   2.084778e+01   -1.611654e-02    1.447553e-03    6.499652e-01
   2.091636e+01   -1.606370e-02    1.483211e-03    6.648784e-01
   2.098494e+01   -1.601120e-02    1.511500e-03    6.823573e-01
