# All units in Hartree [AU] if not specified
# Convergence: Err(φ)=3.839e-11, Err(n_e)=9.850e-11, Err(IET)=9.452e-13, Q_net=5.162e-07
# {"name":"Ar", "Z":18, "Zstar":0.6171407397467092, "A":39.948,  "μ[AU]": -3.6589738546e-02, "Te[AU]": 1.865e-02, "Ti[AU]": 1.865e-02, "rs[AU]": 1.372e+01 }
   r[AU]           n[AU]           nf[AU]          nb[AU]          n_ion[AU]       φtot[AU]        δVxc/δρ[Au]     U_ei[AU]        U_ii[AU]        g_ii            
   1.000000e-04    7.290097e+06    1.819734e+00    7.290095e+06    0.000000e+00    1.799173e+05    0.000000e+00   -7.257491e+00    1.603726e+01   -1.470944e-13
   1.005935e-04    7.225644e+06   -5.680373e-01    7.225644e+06    0.000000e+00    1.788553e+05    0.000000e+00    1.014067e+00    1.603721e+01   -1.470920e-13
   1.011905e-04    7.161766e+06    2.525308e+00    7.161763e+06    0.000000e+00    1.777995e+05    0.000000e+00   -8.998875e+00    1.603716e+01   -1.470897e-13
   1.017911e-04    7.098449e+06    1.962708e+00    7.098447e+06    0.000000e+00    1.767501e+05    0.000000e+00   -7.626162e+00    1.603710e+01   -1.470873e-13
   1.023952e-04    7.035689e+06   -1.059726e+00    7.035690e+06    0.000000e+00    1.757068e+05    0.000000e+00    1.014067e+00    1.603705e+01   -1.470849e-13
   1.030029e-04    6.973490e+06    2.283999e+00    6.973487e+06    0.000000e+00    1.746696e+05    0.000000e+00   -8.423906e+00    1.603700e+01   -1.470825e-13
   1.036142e-04    6.911837e+06    2.046176e+00    6.911835e+06    0.000000e+00    1.736386e+05    0.000000e+00   -7.837636e+00    1.603694e+01   -1.470801e-13
   1.042292e-04    6.850725e+06   -1.525127e+00    6.850727e+06    0.000000e+00    1.726136e+05    0.000000e+00    1.014067e+00    1.603689e+01   -1.470777e-13
   1.048478e-04    6.790161e+06    2.054235e+00    6.790159e+06    0.000000e+00    1.715947e+05    0.000000e+00   -7.857877e+00    1.603683e+01   -1.470753e-13
   1.054700e-04    6.730129e+06    2.121325e+00    6.730127e+06    0.000000e+00    1.705819e+05    0.000000e+00   -8.025346e+00    1.603678e+01   -1.470728e-13
   1.060960e-04    6.670624e+06   -1.209053e+00    6.670625e+06    0.000000e+00    1.695750e+05    0.000000e+00    1.014067e+00    1.603672e+01   -1.470704e-13
   1.067257e-04    6.611651e+06    1.783671e+00    6.611650e+06    0.000000e+00    1.685740e+05    0.000000e+00   -7.162625e+00    1.603667e+01   -1.470679e-13
   1.073591e-04    6.553197e+06    2.148491e+00    6.553195e+06    0.000000e+00    1.675789e+05    0.000000e+00   -8.092244e+00    1.603661e+01   -1.470654e-13
   1.079962e-04    6.495256e+06   -8.032692e-01    6.495257e+06    0.000000e+00    1.665897e+05    0.000000e+00    1.014067e+00    1.603655e+01   -1.470629e-13
   1.086372e-04    6.437833e+06    1.494452e+00    6.437831e+06    0.000000e+00    1.656064e+05    0.000000e+00   -6.379874e+00    1.603650e+01   -1.470604e-13
   1.092819e-04    6.380915e+06    2.157227e+00    6.380913e+06    0.000000e+00    1.646288e+05    0.000000e+00   -8.114021e+00    1.603644e+01   -1.470578e-13
   1.099305e-04    6.324497e+06   -4.271377e-01    6.324498e+06    0.000000e+00    1.636570e+05    0.000000e+00    1.014067e+00    1.603638e+01   -1.470553e-13
   1.105830e-04    6.268582e+06    1.208094e+00    6.268581e+06    0.000000e+00    1.626910e+05    0.000000e+00   -5.552837e+00    1.603632e+01   -1.470527e-13
   1.112393e-04    6.213161e+06    2.128759e+00    6.213159e+06    0.000000e+00    1.617306e+05    0.000000e+00   -8.043738e+00    1.603627e+01   -1.470501e-13
   1.118995e-04    6.158226e+06   -1.052599e-01    6.158226e+06    0.000000e+00    1.607760e+05    0.000000e+00    1.014067e+00    1.603621e+01   -1.470475e-13
   1.125636e-04    6.103780e+06    9.090819e-01    6.103779e+06    0.000000e+00    1.598269e+05    0.000000e+00   -4.615369e+00    1.603615e+01   -1.470449e-13
   1.132316e-04    6.049815e+06    2.078236e+00    6.049813e+06    0.000000e+00    1.588834e+05    0.000000e+00   -7.917693e+00    1.603609e+01   -1.470423e-13
   1.139037e-04    5.996324e+06    1.747078e-01    5.996324e+06    0.000000e+00    1.579456e+05    0.000000e+00   -1.619857e+00    1.603603e+01   -1.470396e-13
   1.145797e-04    5.943309e+06    5.989175e-01    5.943308e+06    0.000000e+00    1.570132e+05    0.000000e+00   -3.524538e+00    1.603597e+01   -1.470370e-13
   1.152597e-04    5.890763e+06    2.005760e+00    5.890761e+06    0.000000e+00    1.560863e+05    0.000000e+00   -7.735599e+00    1.603591e+01   -1.470343e-13
   1.159437e-04    5.838678e+06    4.151359e-01    5.838677e+06    0.000000e+00    1.551650e+05    0.000000e+00   -2.787467e+00    1.603585e+01   -1.470316e-13
   1.166319e-04    5.787055e+06    2.815525e-01    5.787055e+06    0.000000e+00    1.542490e+05    0.000000e+00   -2.180098e+00    1.603579e+01   -1.470289e-13
   1.173241e-04    5.735890e+06    1.915976e+00    5.735888e+06    0.000000e+00    1.533385e+05    0.000000e+00   -7.506819e+00    1.603573e+01   -1.470262e-13
   1.180204e-04    5.685175e+06    6.192097e-01    5.685174e+06    0.000000e+00    1.524333e+05    0.000000e+00   -3.600887e+00    1.603566e+01   -1.470234e-13
   1.187208e-04    5.634908e+06   -4.901987e-02    5.634908e+06    0.000000e+00    1.515335e+05    0.000000e+00    1.014067e+00    1.603560e+01   -1.470207e-13
   1.194254e-04    5.585088e+06    1.799163e+00    5.585086e+06    0.000000e+00    1.506389e+05    0.000000e+00   -7.203610e+00    1.603554e+01   -1.470179e-13
   1.201342e-04    5.535705e+06    7.830575e-01    5.535705e+06    0.000000e+00    1.497497e+05    0.000000e+00   -4.190092e+00    1.603548e+01   -1.470151e-13
   1.208472e-04    5.486759e+06   -3.702315e-01    5.486760e+06    0.000000e+00    1.488657e+05    0.000000e+00    1.014067e+00    1.603541e+01   -1.470123e-13
   1.215644e-04    5.438249e+06    1.672343e+00    5.438247e+06    0.000000e+00    1.479869e+05    0.000000e+00   -6.866673e+00    1.603535e+01   -1.470095e-13
   1.222859e-04    5.390165e+06    9.273002e-01    5.390164e+06    0.000000e+00    1.471133e+05    0.000000e+00   -4.674951e+00    1.603529e+01   -1.470066e-13
   1.230117e-04    5.342505e+06   -7.027059e-01    5.342505e+06    0.000000e+00    1.462449e+05    0.000000e+00    1.014067e+00    1.603522e+01   -1.470038e-13
   1.237417e-04    5.295269e+06    1.523248e+00    5.295268e+06    0.000000e+00    1.453815e+05    0.000000e+00   -6.459738e+00    1.603516e+01   -1.470009e-13
   1.244761e-04    5.248449e+06    1.035977e+00    5.248448e+06    0.000000e+00    1.445233e+05    0.000000e+00   -5.024147e+00    1.603509e+01   -1.469980e-13
   1.252149e-04    5.202041e+06   -1.036366e+00    5.202042e+06    0.000000e+00    1.436702e+05    0.000000e+00    1.014067e+00    1.603503e+01   -1.469951e-13
   1.259580e-04    5.156047e+06    1.363418e+00    5.156046e+06    0.000000e+00    1.428220e+05    0.000000e+00   -6.008670e+00    1.603496e+01   -1.469922e-13
   1.267056e-04    5.110458e+06    1.117394e+00    5.110457e+06    0.000000e+00    1.419789e+05    0.000000e+00   -5.277350e+00    1.603489e+01   -1.469892e-13
   1.274576e-04    5.065269e+06   -1.372062e+00    5.065270e+06    0.000000e+00    1.411408e+05    0.000000e+00    1.014067e+00    1.603483e+01   -1.469863e-13
   1.282140e-04    5.020485e+06    1.193500e+00    5.020483e+06    0.000000e+00    1.403075e+05    0.000000e+00   -5.508849e+00    1.603476e+01   -1.469833e-13
   1.289750e-04    4.976093e+06    1.171315e+00    4.976092e+06    0.000000e+00    1.394793e+05    0.000000e+00   -5.442092e+00    1.603469e+01   -1.469803e-13
   1.297404e-04    4.932092e+06   -1.375090e+00    4.932093e+06    0.000000e+00    1.386559e+05    0.000000e+00    1.014067e+00    1.603462e+01   -1.469773e-13
   1.305104e-04    4.888484e+06    1.009651e+00    4.888483e+06    0.000000e+00    1.378373e+05    0.000000e+00   -4.940729e+00    1.603456e+01   -1.469743e-13
   1.312850e-04    4.845260e+06    1.206535e+00    4.845259e+06    0.000000e+00    1.370236e+05    0.000000e+00   -5.548162e+00    1.603449e+01   -1.469712e-13
   1.320642e-04    4.802416e+06   -1.062615e+00    4.802417e+06    0.000000e+00    1.362147e+05    0.000000e+00    1.014067e+00    1.603442e+01   -1.469682e-13
   1.328480e-04    4.759954e+06    8.114951e-01    4.759953e+06    0.000000e+00    1.354105e+05    0.000000e+00   -4.287906e+00    1.603435e+01   -1.469651e-13
   1.336364e-04    4.717866e+06    1.217970e+00    4.717864e+06    0.000000e+00    1.346111e+05    0.000000e+00   -5.582301e+00    1.603428e+01   -1.469620e-13
   1.344295e-04    4.676147e+06   -7.851002e-01    4.676148e+06    0.000000e+00    1.338164e+05    0.000000e+00    1.014067e+00    1.603421e+01   -1.469589e-13
   1.352274e-04    4.634801e+06    6.144816e-01    4.634800e+06    0.000000e+00    1.330265e+05    0.000000e+00   -3.583287e+00    1.603414e+01   -1.469557e-13
   1.360299e-04    4.593819e+06    1.206845e+00    4.593818e+06    0.000000e+00    1.322411e+05    0.000000e+00   -5.549092e+00    1.603407e+01   -1.469526e-13
   1.368372e-04    4.553198e+06   -5.343565e-01    4.553198e+06    0.000000e+00    1.314604e+05    0.000000e+00    1.014067e+00    1.603400e+01   -1.469494e-13
   1.376494e-04    4.512937e+06    4.052687e-01    4.512937e+06    0.000000e+00    1.306843e+05    0.000000e+00   -2.745153e+00    1.603392e+01   -1.469462e-13
   1.384663e-04    4.473033e+06    1.179560e+00    4.473032e+06    0.000000e+00    1.299128e+05    0.000000e+00   -5.466958e+00    1.603385e+01   -1.469430e-13
   1.392881e-04    4.433479e+06   -3.254319e-01    4.433480e+06    0.000000e+00    1.291459e+05    0.000000e+00    1.014067e+00    1.603378e+01   -1.469397e-13
   1.401148e-04    4.394277e+06    1.851023e-01    4.394277e+06    0.000000e+00    1.283834e+05    0.000000e+00   -1.678591e+00    1.603370e+01   -1.469365e-13
   1.409463e-04    4.355421e+06    1.137148e+00    4.355420e+06    0.000000e+00    1.276255e+05    0.000000e+00   -5.338168e+00    1.603363e+01   -1.469332e-13
   1.417828e-04    4.316907e+06   -1.340859e-01    4.316907e+06    0.000000e+00    1.268720e+05    0.000000e+00    1.014067e+00    1.603356e+01   -1.469299e-13
   1.426243e-04    4.278735e+06   -3.034366e-02    4.278735e+06    0.000000e+00    1.261230e+05    0.000000e+00    1.014067e+00    1.603348e+01   -1.469266e-13
   1.434708e-04    4.240901e+06    1.078937e+00    4.240900e+06    0.000000e+00    1.253784e+05    0.000000e+00   -5.158545e+00    1.603341e+01   -1.469233e-13
   1.443223e-04    4.203399e+06    2.520487e-02    4.203399e+06    0.000000e+00    1.246382e+05    0.000000e+00   -5.351395e-01    1.603333e+01   -1.469199e-13
   1.451788e-04    4.166230e+06   -2.599345e-01    4.166230e+06    0.000000e+00    1.239023e+05    0.000000e+00    1.014067e+00    1.603326e+01   -1.469166e-13
   1.460404e-04    4.129390e+06    1.010244e+00    4.129389e+06    0.000000e+00    1.231708e+05    0.000000e+00   -4.942605e+00    1.603318e+01   -1.469132e-13
   1.469072e-04    4.092875e+06    1.553360e-01    4.092874e+06    0.000000e+00    1.224437e+05    0.000000e+00   -1.507141e+00    1.603310e+01   -1.469098e-13
   1.477791e-04    4.056682e+06   -4.825336e-01    4.056682e+06    0.000000e+00    1.217208e+05    0.000000e+00    1.014067e+00    1.603302e+01   -1.469063e-13
   1.486561e-04    4.020811e+06    9.260323e-01    4.020810e+06    0.000000e+00    1.210021e+05    0.000000e+00   -4.670843e+00    1.603295e+01   -1.469029e-13
   1.495384e-04    3.985255e+06    2.716674e-01    3.985254e+06    0.000000e+00    1.202877e+05    0.000000e+00   -2.131705e+00    1.603287e+01   -1.468994e-13
   1.504259e-04    3.950013e+06   -7.131811e-01    3.950013e+06    0.000000e+00    1.195776e+05    0.000000e+00    1.014067e+00    1.603279e+01   -1.468959e-13
   1.513187e-04    3.915085e+06    8.283828e-01    3.915084e+06    0.000000e+00    1.188716e+05    0.000000e+00   -4.345496e+00    1.603271e+01   -1.468924e-13
   1.522167e-04    3.880463e+06    3.622076e-01    3.880463e+06    0.000000e+00    1.181698e+05    0.000000e+00   -2.556010e+00    1.603263e+01   -1.468889e-13
   1.531201e-04    3.846147e+06   -9.443276e-01    3.846148e+06    0.000000e+00    1.174721e+05    0.000000e+00    1.014067e+00    1.603255e+01   -1.468853e-13
   1.540289e-04    3.812137e+06    7.232257e-01    3.812137e+06    0.000000e+00    1.167785e+05    0.000000e+00   -3.980057e+00    1.603247e+01   -1.468818e-13
   1.549430e-04    3.778426e+06    4.330931e-01    3.778426e+06    0.000000e+00    1.160891e+05    0.000000e+00   -2.863789e+00    1.603239e+01   -1.468782e-13
   1.558626e-04    3.745012e+06   -1.176930e+00    3.745013e+06    0.000000e+00    1.154037e+05    0.000000e+00    1.014067e+00    1.603231e+01   -1.468745e-13
   1.567877e-04    3.711896e+06    6.109860e-01    3.711895e+06    0.000000e+00    1.147223e+05    0.000000e+00   -3.570205e+00    1.603223e+01   -1.468709e-13
   1.577182e-04    3.679071e+06    4.839356e-01    3.679070e+06    0.000000e+00    1.140450e+05    0.000000e+00   -3.074098e+00    1.603214e+01   -1.468672e-13
   1.586542e-04    3.646534e+06   -1.409590e+00    3.646536e+06    0.000000e+00    1.133716e+05    0.000000e+00    1.014067e+00    1.603206e+01   -1.468636e-13
   1.595958e-04    3.614289e+06    4.887308e-01    3.614289e+06    0.000000e+00    1.127022e+05    0.000000e+00   -3.093653e+00    1.603198e+01   -1.468599e-13
   1.605430e-04    3.582327e+06    5.213394e-01    3.582327e+06    0.000000e+00    1.120368e+05    0.000000e+00   -3.224311e+00    1.603189e+01   -1.468561e-13
   1.614958e-04    3.550646e+06   -1.270923e+00    3.550647e+06    0.000000e+00    1.113753e+05    0.000000e+00    1.014067e+00    1.603181e+01   -1.468524e-13
   1.624543e-04    3.519248e+06    3.561567e-01    3.519247e+06    0.000000e+00    1.107177e+05    0.000000e+00   -2.528858e+00    1.603172e+01   -1.468486e-13
   1.634185e-04    3.488126e+06    5.415563e-01    3.488125e+06    0.000000e+00    1.100640e+05    0.000000e+00   -3.303915e+00    1.603164e+01   -1.468448e-13
   1.643883e-04    3.457277e+06   -1.055912e+00    3.457278e+06    0.000000e+00    1.094142e+05    0.000000e+00    1.014067e+00    1.603155e+01   -1.468410e-13
   1.653640e-04    3.426704e+06    2.244631e-01    3.426704e+06    0.000000e+00    1.087682e+05    0.000000e+00   -1.891836e+00    1.603147e+01   -1.468372e-13
   1.663454e-04    3.396401e+06    5.446209e-01    3.396400e+06    0.000000e+00    1.081259e+05    0.000000e+00   -3.315825e+00    1.603138e+01   -1.468333e-13
   1.673327e-04    3.366363e+06   -8.601274e-01    3.366364e+06    0.000000e+00    1.074875e+05    0.000000e+00    1.014067e+00    1.603129e+01   -1.468294e-13
   1.683258e-04    3.336593e+06    8.421792e-02    3.336593e+06    0.000000e+00    1.068529e+05    0.000000e+00   -1.043598e+00    1.603120e+01   -1.468255e-13
   1.693248e-04    3.307086e+06    5.377534e-01    3.307086e+06    0.000000e+00    1.062220e+05    0.000000e+00   -3.289043e+00    1.603111e+01   -1.468216e-13
   1.703297e-04    3.277838e+06   -6.953213e-01    3.277839e+06    0.000000e+00    1.055948e+05    0.000000e+00    1.014067e+00    1.603102e+01   -1.468176e-13
   1.713406e-04    3.248851e+06   -6.043160e-02    3.248851e+06    0.000000e+00    1.049713e+05    0.000000e+00    1.014067e+00    1.603094e+01   -1.468137e-13
   1.723575e-04    3.220119e+06    5.191975e-01    3.220119e+06    0.000000e+00    1.043515e+05    0.000000e+00   -3.215800e+00    1.603084e+01   -1.468097e-13
   1.733804e-04    3.191640e+06   -5.428056e-01    3.191641e+06    0.000000e+00    1.037353e+05    0.000000e+00    1.014067e+00    1.603075e+01   -1.468057e-13
   1.744094e-04    3.163414e+06   -2.096463e-01    3.163415e+06    0.000000e+00    1.031228e+05    0.000000e+00    1.014067e+00    1.603066e+01   -1.468016e-13
   1.754445e-04    3.135438e+06    4.890594e-01    3.135438e+06    0.000000e+00    1.025139e+05    0.000000e+00   -3.094985e+00    1.603057e+01   -1.467975e-13
   1.764858e-04    3.107708e+06   -4.136834e-01    3.107708e+06    0.000000e+00    1.019086e+05    0.000000e+00    1.014067e+00    1.603048e+01   -1.467934e-13
   1.775332e-04    3.080224e+06   -3.599648e-01    3.080224e+06    0.000000e+00    1.013069e+05    0.000000e+00    1.014067e+00    1.603039e+01   -1.467893e-13
   1.785869e-04    3.052983e+06    4.513938e-01    3.052983e+06    0.000000e+00    1.007087e+05    0.000000e+00   -2.940353e+00    1.603029e+01   -1.467852e-13
   1.796468e-04    3.025982e+06   -3.059815e-01    3.025982e+06    0.000000e+00    1.001140e+05    0.000000e+00    1.014067e+00    1.603020e+01   -1.467810e-13
   1.807130e-04    2.999220e+06   -5.135216e-01    2.999220e+06    0.000000e+00    9.952287e+04    0.000000e+00    1.014067e+00    1.603010e+01   -1.467768e-13
   1.817855e-04    2.972695e+06    4.025550e-01    2.972695e+06    0.000000e+00    9.893521e+04    0.000000e+00   -2.733388e+00    1.603001e+01   -1.467726e-13
   1.828644e-04    2.946404e+06   -2.079576e-01    2.946404e+06    0.000000e+00    9.835101e+04    0.000000e+00    1.014067e+00    1.602991e+01   -1.467684e-13
   1.839497e-04    2.920345e+06   -6.723132e-01    2.920345e+06    0.000000e+00    9.777027e+04    0.000000e+00    1.014067e+00    1.602982e+01   -1.467641e-13
   1.850414e-04    2.894517e+06    3.415377e-01    2.894517e+06    0.000000e+00    9.719295e+04    0.000000e+00   -2.462553e+00    1.602972e+01   -1.467598e-13
   1.861396e-04    2.868917e+06   -1.287769e-01    2.868917e+06    0.000000e+00    9.661903e+04    0.000000e+00    1.014067e+00    1.602962e+01   -1.467555e-13
   1.872443e-04    2.843543e+06   -8.248277e-01    2.843544e+06    0.000000e+00    9.604850e+04    0.000000e+00    1.014067e+00    1.602952e+01   -1.467511e-13
   1.883556e-04    2.818394e+06    2.789863e-01    2.818394e+06    0.000000e+00    9.548134e+04    0.000000e+00   -2.167597e+00    1.602943e+01   -1.467468e-13
   1.894735e-04    2.793467e+06   -6.517198e-02    2.793467e+06    0.000000e+00    9.491752e+04    0.000000e+00    1.014067e+00    1.602933e+01   -1.467424e-13
   1.905980e-04    2.768760e+06   -9.816093e-01    2.768760e+06    0.000000e+00    9.435703e+04    0.000000e+00    1.014067e+00    1.602923e+01   -1.467380e-13
   1.917292e-04    2.744272e+06    2.106558e-01    2.744272e+06    0.000000e+00    9.379985e+04    0.000000e+00   -1.818577e+00    1.602913e+01   -1.467335e-13
   1.928671e-04    2.720000e+06   -1.374652e-02    2.720000e+06    0.000000e+00    9.324595e+04    0.000000e+00    1.014067e+00    1.602903e+01   -1.467290e-13
   1.940117e-04    2.695942e+06   -1.138482e+00    2.695943e+06    0.000000e+00    9.269532e+04    0.000000e+00    1.014067e+00    1.602892e+01   -1.467245e-13
   1.951632e-04    2.672099e+06    1.342525e-01    2.672099e+06    0.000000e+00    9.214794e+04    0.000000e+00   -1.378934e+00    1.602882e+01   -1.467200e-13
   1.963215e-04    2.648465e+06    2.657195e-02    2.648465e+06    0.000000e+00    9.160379e+04    0.000000e+00   -5.499202e-01    1.602872e+01   -1.467155e-13
   1.974866e-04    2.625038e+06   -1.294876e+00    2.625040e+06    0.000000e+00    9.106285e+04    0.000000e+00    1.014067e+00    1.602862e+01   -1.467109e-13
   1.986587e-04    2.601822e+06    5.286464e-02    2.601822e+06    0.000000e+00    9.052511e+04    0.000000e+00   -7.980963e-01    1.602851e+01   -1.467063e-13
   1.998377e-04    2.578809e+06    5.322255e-02    2.578809e+06    0.000000e+00    8.999053e+04    0.000000e+00   -8.011404e-01    1.602841e+01   -1.467016e-13
   2.010238e-04    2.555999e+06   -1.260543e+00    2.556000e+06    0.000000e+00    8.945911e+04    0.000000e+00    1.014067e+00    1.602830e+01   -1.466970e-13
   2.022168e-04    2.533392e+06   -3.297884e-02    2.533392e+06    0.000000e+00    8.893083e+04    0.000000e+00    1.014067e+00    1.602820e+01   -1.466923e-13
   2.034170e-04    2.510985e+06    7.196274e-02    2.510985e+06    0.000000e+00    8.840566e+04    0.000000e+00   -9.520566e-01    1.602809e+01   -1.466876e-13
   2.046242e-04    2.488774e+06   -1.103702e+00    2.488775e+06    0.000000e+00    8.788359e+04    0.000000e+00    1.014067e+00    1.602798e+01   -1.466828e-13
