# All units in Hartree [AU] if not specified
# Convergence: Err(φ)=4.066e-11, Err(n_e)=7.905e-11, Err(IET)=9.938e-13, Q_net=3.924e-07
# {"name":"Ar", "Z":18, "Zstar":1.2589859381020005, "A":39.948,  "μ[AU]": -2.1836371752e-01, "Te[AU]": 6.922e-02, "Ti[AU]": 6.922e-02, "rs[AU]": 1.372e+01 }
   r[AU]           n[AU]           nf[AU]          nb[AU]          n_ion[AU]       φtot[AU]        δVxc/δρ[Au]     U_ei[AU]        U_ii[AU]        g_ii            
   1.000000e-04    7.290097e+06   -8.941484e+00    7.290106e+06    0.000000e+00    1.799174e+05    0.000000e+00    3.979396e+00    6.584720e+01   -1.450109e-14
   1.005935e-04    7.225644e+06   -1.144691e+01    7.225655e+06    0.000000e+00    1.788554e+05    0.000000e+00    3.979396e+00    6.584698e+01   -1.450086e-14
   1.011905e-04    7.161765e+06   -8.682812e+00    7.161774e+06    0.000000e+00    1.777997e+05    0.000000e+00    3.979396e+00    6.584676e+01   -1.450063e-14
   1.017911e-04    7.098445e+06   -1.226642e+01    7.098457e+06    0.000000e+00    1.767502e+05    0.000000e+00    3.979396e+00    6.584654e+01   -1.450040e-14
   1.023952e-04    7.035692e+06   -8.743553e+00    7.035700e+06    0.000000e+00    1.757069e+05    0.000000e+00    3.979396e+00    6.584631e+01   -1.450016e-14
   1.030029e-04    6.973487e+06   -1.088156e+01    6.973498e+06    0.000000e+00    1.746698e+05    0.000000e+00    3.979396e+00    6.584609e+01   -1.449993e-14
   1.036142e-04    6.911836e+06   -9.113321e+00    6.911845e+06    0.000000e+00    1.736388e+05    0.000000e+00    3.979396e+00    6.584586e+01   -1.449969e-14
   1.042292e-04    6.850728e+06   -9.847367e+00    6.850738e+06    0.000000e+00    1.726138e+05    0.000000e+00    3.979396e+00    6.584563e+01   -1.449945e-14
   1.048478e-04    6.790160e+06   -9.757979e+00    6.790170e+06    0.000000e+00    1.715949e+05    0.000000e+00    3.979396e+00    6.584540e+01   -1.449921e-14
   1.054700e-04    6.730128e+06   -9.145336e+00    6.730138e+06    0.000000e+00    1.705820e+05    0.000000e+00    3.979396e+00    6.584517e+01   -1.449897e-14
   1.060960e-04    6.670625e+06   -1.068305e+01    6.670636e+06    0.000000e+00    1.695751e+05    0.000000e+00    3.979396e+00    6.584494e+01   -1.449873e-14
   1.067257e-04    6.611651e+06   -8.763107e+00    6.611660e+06    0.000000e+00    1.685742e+05    0.000000e+00    3.979396e+00    6.584470e+01   -1.449848e-14
   1.073591e-04    6.553194e+06   -1.184914e+01    6.553205e+06    0.000000e+00    1.675791e+05    0.000000e+00    3.979396e+00    6.584447e+01   -1.449823e-14
   1.079962e-04    6.495259e+06   -8.677076e+00    6.495267e+06    0.000000e+00    1.665899e+05    0.000000e+00    3.979396e+00    6.584423e+01   -1.449799e-14
   1.086372e-04    6.437830e+06   -1.125738e+01    6.437842e+06    0.000000e+00    1.656066e+05    0.000000e+00    3.979396e+00    6.584399e+01   -1.449774e-14
   1.092819e-04    6.380914e+06   -8.869345e+00    6.380923e+06    0.000000e+00    1.646290e+05    0.000000e+00    3.979396e+00    6.584375e+01   -1.449749e-14
   1.099305e-04    6.324498e+06   -1.015529e+01    6.324508e+06    0.000000e+00    1.636572e+05    0.000000e+00    3.979396e+00    6.584351e+01   -1.449724e-14
   1.105830e-04    6.268582e+06   -9.334123e+00    6.268591e+06    0.000000e+00    1.626912e+05    0.000000e+00    3.979396e+00    6.584327e+01   -1.449698e-14
   1.112393e-04    6.213159e+06   -9.364809e+00    6.213169e+06    0.000000e+00    1.617308e+05    0.000000e+00    3.979396e+00    6.584302e+01   -1.449673e-14
   1.118995e-04    6.158226e+06   -1.005985e+01    6.158236e+06    0.000000e+00    1.607761e+05    0.000000e+00    3.979396e+00    6.584278e+01   -1.449647e-14
   1.125636e-04    6.103780e+06   -8.870239e+00    6.103789e+06    0.000000e+00    1.598271e+05    0.000000e+00    3.979396e+00    6.584253e+01   -1.449622e-14
   1.132316e-04    6.049812e+06   -1.101082e+01    6.049823e+06    0.000000e+00    1.588836e+05    0.000000e+00    3.979396e+00    6.584228e+01   -1.449596e-14
   1.139037e-04    5.996326e+06   -8.655868e+00    5.996334e+06    0.000000e+00    1.579457e+05    0.000000e+00    3.979396e+00    6.584203e+01   -1.449570e-14
   1.145797e-04    5.943307e+06   -1.161241e+01    5.943318e+06    0.000000e+00    1.570134e+05    0.000000e+00    3.979396e+00    6.584178e+01   -1.449543e-14
   1.152597e-04    5.890762e+06   -8.711769e+00    5.890771e+06    0.000000e+00    1.560865e+05    0.000000e+00    3.979396e+00    6.584153e+01   -1.449517e-14
   1.159437e-04    5.838677e+06   -1.045700e+01    5.838687e+06    0.000000e+00    1.551651e+05    0.000000e+00    3.979396e+00    6.584128e+01   -1.449490e-14
   1.166319e-04    5.787056e+06   -9.012449e+00    5.787065e+06    0.000000e+00    1.542492e+05    0.000000e+00    3.979396e+00    6.584102e+01   -1.449464e-14
   1.173241e-04    5.735889e+06   -9.599383e+00    5.735898e+06    0.000000e+00    1.533386e+05    0.000000e+00    3.979396e+00    6.584076e+01   -1.449437e-14
   1.180204e-04    5.685174e+06   -9.552184e+00    5.685184e+06    0.000000e+00    1.524335e+05    0.000000e+00    3.979396e+00    6.584050e+01   -1.449410e-14
   1.187208e-04    5.634909e+06   -9.008611e+00    5.634918e+06    0.000000e+00    1.515336e+05    0.000000e+00    3.979396e+00    6.584024e+01   -1.449383e-14
   1.194254e-04    5.585086e+06   -1.032332e+01    5.585096e+06    0.000000e+00    1.506391e+05    0.000000e+00    3.979396e+00    6.583998e+01   -1.449355e-14
   1.201342e-04    5.535706e+06   -8.689601e+00    5.535715e+06    0.000000e+00    1.497499e+05    0.000000e+00    3.979396e+00    6.583972e+01   -1.449328e-14
   1.208472e-04    5.486758e+06   -1.129222e+01    5.486770e+06    0.000000e+00    1.488659e+05    0.000000e+00    3.979396e+00    6.583945e+01   -1.449300e-14
   1.215644e-04    5.438249e+06   -8.606314e+00    5.438257e+06    0.000000e+00    1.479871e+05    0.000000e+00    3.979396e+00    6.583919e+01   -1.449272e-14
   1.222859e-04    5.390163e+06   -1.074749e+01    5.390174e+06    0.000000e+00    1.471135e+05    0.000000e+00    3.979396e+00    6.583892e+01   -1.449244e-14
   1.230117e-04    5.342506e+06   -8.766928e+00    5.342515e+06    0.000000e+00    1.462450e+05    0.000000e+00    3.979396e+00    6.583865e+01   -1.449216e-14
   1.237417e-04    5.295268e+06   -9.823755e+00    5.295277e+06    0.000000e+00    1.453817e+05    0.000000e+00    3.979396e+00    6.583838e+01   -1.449188e-14
   1.244761e-04    5.248448e+06   -9.150286e+00    5.248458e+06    0.000000e+00    1.445235e+05    0.000000e+00    3.979396e+00    6.583810e+01   -1.449159e-14
   1.252149e-04    5.202042e+06   -9.159157e+00    5.202052e+06    0.000000e+00    1.436703e+05    0.000000e+00    3.979396e+00    6.583783e+01   -1.449131e-14
   1.259580e-04    5.156046e+06   -9.744471e+00    5.156056e+06    0.000000e+00    1.428222e+05    0.000000e+00    3.979396e+00    6.583755e+01   -1.449102e-14
   1.267056e-04    5.110458e+06   -8.740767e+00    5.110466e+06    0.000000e+00    1.419791e+05    0.000000e+00    3.979396e+00    6.583727e+01   -1.449073e-14
   1.274576e-04    5.065269e+06   -1.053753e+01    5.065280e+06    0.000000e+00    1.411409e+05    0.000000e+00    3.979396e+00    6.583699e+01   -1.449044e-14
   1.282140e-04    5.020484e+06   -8.555612e+00    5.020493e+06    0.000000e+00    1.403077e+05    0.000000e+00    3.979396e+00    6.583671e+01   -1.449014e-14
   1.289750e-04    4.976091e+06   -1.102339e+01    4.976102e+06    0.000000e+00    1.394794e+05    0.000000e+00    3.979396e+00    6.583643e+01   -1.448985e-14
   1.297404e-04    4.932094e+06   -8.591558e+00    4.932103e+06    0.000000e+00    1.386560e+05    0.000000e+00    3.979396e+00    6.583615e+01   -1.448955e-14
   1.305104e-04    4.888483e+06   -1.005197e+01    4.888493e+06    0.000000e+00    1.378375e+05    0.000000e+00    3.979396e+00    6.583586e+01   -1.448925e-14
   1.312850e-04    4.845260e+06   -8.836461e+00    4.845268e+06    0.000000e+00    1.370238e+05    0.000000e+00    3.979396e+00    6.583557e+01   -1.448895e-14
   1.320642e-04    4.802417e+06   -9.323073e+00    4.802426e+06    0.000000e+00    1.362148e+05    0.000000e+00    3.979396e+00    6.583528e+01   -1.448865e-14
   1.328480e-04    4.759953e+06   -9.286280e+00    4.759962e+06    0.000000e+00    1.354107e+05    0.000000e+00    3.979396e+00    6.583499e+01   -1.448835e-14
   1.336364e-04    4.717865e+06   -8.826648e+00    4.717874e+06    0.000000e+00    1.346113e+05    0.000000e+00    3.979396e+00    6.583470e+01   -1.448804e-14
   1.344295e-04    4.676147e+06   -9.909912e+00    4.676157e+06    0.000000e+00    1.338166e+05    0.000000e+00    3.979396e+00    6.583440e+01   -1.448773e-14
   1.352274e-04    4.634801e+06   -8.544719e+00    4.634810e+06    0.000000e+00    1.330266e+05    0.000000e+00    3.979396e+00    6.583411e+01   -1.448742e-14
   1.360299e-04    4.593817e+06   -1.071488e+01    4.593827e+06    0.000000e+00    1.322413e+05    0.000000e+00    3.979396e+00    6.583381e+01   -1.448711e-14
   1.368372e-04    4.553199e+06   -8.475338e+00    4.553207e+06    0.000000e+00    1.314606e+05    0.000000e+00    3.979396e+00    6.583351e+01   -1.448680e-14
   1.376494e-04    4.512936e+06   -1.027376e+01    4.512946e+06    0.000000e+00    1.306845e+05    0.000000e+00    3.979396e+00    6.583321e+01   -1.448648e-14
   1.384663e-04    4.473032e+06   -8.598054e+00    4.473041e+06    0.000000e+00    1.299130e+05    0.000000e+00    3.979396e+00    6.583290e+01   -1.448617e-14
   1.392881e-04    4.433479e+06   -9.491990e+00    4.433489e+06    0.000000e+00    1.291460e+05    0.000000e+00    3.979396e+00    6.583260e+01   -1.448585e-14
   1.401148e-04    4.394277e+06   -8.904759e+00    4.394286e+06    0.000000e+00    1.283836e+05    0.000000e+00    3.979396e+00    6.583229e+01   -1.448553e-14
   1.409463e-04    4.355420e+06   -8.927730e+00    4.355429e+06    0.000000e+00    1.276257e+05    0.000000e+00    3.979396e+00    6.583198e+01   -1.448521e-14
   1.417828e-04    4.316907e+06   -9.389163e+00    4.316916e+06    0.000000e+00    1.268722e+05    0.000000e+00    3.979396e+00    6.583167e+01   -1.448488e-14
   1.426243e-04    4.278735e+06   -8.568946e+00    4.278744e+06    0.000000e+00    1.261232e+05    0.000000e+00    3.979396e+00    6.583136e+01   -1.448455e-14
   1.434708e-04    4.240899e+06   -1.003951e+01    4.240909e+06    0.000000e+00    1.253786e+05    0.000000e+00    3.979396e+00    6.583104e+01   -1.448423e-14
   1.443223e-04    4.203400e+06   -8.398354e+00    4.203408e+06    0.000000e+00    1.246384e+05    0.000000e+00    3.979396e+00    6.583073e+01   -1.448390e-14
   1.451788e-04    4.166228e+06   -1.048587e+01    4.166239e+06    0.000000e+00    1.239025e+05    0.000000e+00    3.979396e+00    6.583041e+01   -1.448356e-14
   1.460404e-04    4.129390e+06   -8.418020e+00    4.129398e+06    0.000000e+00    1.231710e+05    0.000000e+00    3.979396e+00    6.583009e+01   -1.448323e-14
   1.469072e-04    4.092874e+06   -9.667508e+00    4.092883e+06    0.000000e+00    1.224438e+05    0.000000e+00    3.979396e+00    6.582976e+01   -1.448289e-14
   1.477791e-04    4.056682e+06   -8.606826e+00    4.056691e+06    0.000000e+00    1.217209e+05    0.000000e+00    3.979396e+00    6.582944e+01   -1.448256e-14
   1.486561e-04    4.020809e+06   -9.039414e+00    4.020819e+06    0.000000e+00    1.210023e+05    0.000000e+00    3.979396e+00    6.582911e+01   -1.448222e-14
   1.495384e-04    3.985254e+06   -8.963928e+00    3.985263e+06    0.000000e+00    1.202879e+05    0.000000e+00    3.979396e+00    6.582879e+01   -1.448187e-14
   1.504259e-04    3.950013e+06   -8.609484e+00    3.950022e+06    0.000000e+00    1.195777e+05    0.000000e+00    3.979396e+00    6.582846e+01   -1.448153e-14
   1.513187e-04    3.915083e+06   -9.473898e+00    3.915093e+06    0.000000e+00    1.188718e+05    0.000000e+00    3.979396e+00    6.582812e+01   -1.448118e-14
   1.522167e-04    3.880463e+06   -8.363687e+00    3.880472e+06    0.000000e+00    1.181699e+05    0.000000e+00    3.979396e+00    6.582779e+01   -1.448083e-14
   1.531201e-04    3.846147e+06   -1.013159e+01    3.846157e+06    0.000000e+00    1.174723e+05    0.000000e+00    3.979396e+00    6.582745e+01   -1.448048e-14
   1.540289e-04    3.812137e+06   -8.288441e+00    3.812145e+06    0.000000e+00    1.167787e+05    0.000000e+00    3.979396e+00    6.582712e+01   -1.448013e-14
   1.549430e-04    3.778425e+06   -9.828216e+00    3.778434e+06    0.000000e+00    1.160892e+05    0.000000e+00    3.979396e+00    6.582678e+01   -1.447978e-14
   1.558626e-04    3.745013e+06   -8.373521e+00    3.745021e+06    0.000000e+00    1.154038e+05    0.000000e+00    3.979396e+00    6.582643e+01   -1.447942e-14
   1.567877e-04    3.711895e+06   -9.160840e+00    3.711904e+06    0.000000e+00    1.147225e+05    0.000000e+00    3.979396e+00    6.582609e+01   -1.447906e-14
   1.577182e-04    3.679070e+06   -8.615784e+00    3.679079e+06    0.000000e+00    1.140451e+05    0.000000e+00    3.979396e+00    6.582574e+01   -1.447870e-14
   1.586542e-04    3.646536e+06   -8.675365e+00    3.646544e+06    0.000000e+00    1.133718e+05    0.000000e+00    3.979396e+00    6.582540e+01   -1.447834e-14
   1.595958e-04    3.614288e+06   -9.004863e+00    3.614297e+06    0.000000e+00    1.127024e+05    0.000000e+00    3.979396e+00    6.582505e+01   -1.447797e-14
   1.605430e-04    3.582327e+06   -8.353718e+00    3.582335e+06    0.000000e+00    1.120370e+05    0.000000e+00    3.979396e+00    6.582469e+01   -1.447761e-14
   1.614958e-04    3.550646e+06   -9.534879e+00    3.550655e+06    0.000000e+00    1.113755e+05    0.000000e+00    3.979396e+00    6.582434e+01   -1.447724e-14
   1.624543e-04    3.519248e+06   -8.202586e+00    3.519256e+06    0.000000e+00    1.107179e+05    0.000000e+00    3.979396e+00    6.582398e+01   -1.447687e-14
   1.634185e-04    3.488124e+06   -9.993771e+00    3.488134e+06    0.000000e+00    1.100642e+05    0.000000e+00    3.979396e+00    6.582363e+01   -1.447649e-14
   1.643883e-04    3.457279e+06   -8.194661e+00    3.457287e+06    0.000000e+00    1.094143e+05    0.000000e+00    3.979396e+00    6.582327e+01   -1.447612e-14
   1.653640e-04    3.426703e+06   -9.283372e+00    3.426713e+06    0.000000e+00    1.087683e+05    0.000000e+00    3.979396e+00    6.582290e+01   -1.447574e-14
   1.663454e-04    3.396400e+06   -8.339941e+00    3.396408e+06    0.000000e+00    1.081261e+05    0.000000e+00    3.979396e+00    6.582254e+01   -1.447536e-14
   1.673327e-04    3.366364e+06   -8.746065e+00    3.366372e+06    0.000000e+00    1.074877e+05    0.000000e+00    3.979396e+00    6.582217e+01   -1.447497e-14
   1.683258e-04    3.336593e+06   -8.616983e+00    3.336602e+06    0.000000e+00    1.068530e+05    0.000000e+00    3.979396e+00    6.582180e+01   -1.447459e-14
   1.693248e-04    3.307086e+06   -8.368804e+00    3.307094e+06    0.000000e+00    1.062221e+05    0.000000e+00    3.979396e+00    6.582143e+01   -1.447420e-14
   1.703297e-04    3.277838e+06   -9.024320e+00    3.277847e+06    0.000000e+00    1.055950e+05    0.000000e+00    3.979396e+00    6.582106e+01   -1.447381e-14
   1.713406e-04    3.248851e+06   -8.145025e+00    3.248859e+06    0.000000e+00    1.049715e+05    0.000000e+00    3.979396e+00    6.582068e+01   -1.447342e-14
   1.723575e-04    3.220118e+06   -9.554791e+00    3.220127e+06    0.000000e+00    1.043517e+05    0.000000e+00    3.979396e+00    6.582030e+01   -1.447303e-14
   1.733804e-04    3.191641e+06   -8.063419e+00    3.191649e+06    0.000000e+00    1.037355e+05    0.000000e+00    3.979396e+00    6.581992e+01   -1.447263e-14
   1.744094e-04    3.163413e+06   -9.406278e+00    3.163423e+06    0.000000e+00    1.031230e+05    0.000000e+00    3.979396e+00    6.581954e+01   -1.447223e-14
   1.754445e-04    3.135438e+06   -8.115146e+00    3.135446e+06    0.000000e+00    1.025141e+05    0.000000e+00    3.979396e+00    6.581915e+01   -1.447183e-14
   1.764858e-04    3.107708e+06   -8.829435e+00    3.107717e+06    0.000000e+00    1.019088e+05    0.000000e+00    3.979396e+00    6.581877e+01   -1.447143e-14
   1.775332e-04    3.080224e+06   -8.297952e+00    3.080232e+06    0.000000e+00    1.013070e+05    0.000000e+00    3.979396e+00    6.581838e+01   -1.447102e-14
   1.785869e-04    3.052982e+06   -8.404402e+00    3.052991e+06    0.000000e+00    1.007089e+05    0.000000e+00    3.979396e+00    6.581799e+01   -1.447061e-14
   1.796468e-04    3.025981e+06   -8.602218e+00    3.025990e+06    0.000000e+00    1.001142e+05    0.000000e+00    3.979396e+00    6.581759e+01   -1.447020e-14
   1.807130e-04    2.999220e+06   -8.117293e+00    2.999228e+06    0.000000e+00    9.952305e+04    0.000000e+00    3.979396e+00    6.581720e+01   -1.446979e-14
   1.817855e-04    2.972694e+06   -9.021304e+00    2.972703e+06    0.000000e+00    9.893539e+04    0.000000e+00    3.979396e+00    6.581680e+01   -1.446937e-14
   1.828644e-04    2.946404e+06   -7.967428e+00    2.946412e+06    0.000000e+00    9.835119e+04    0.000000e+00    3.979396e+00    6.581640e+01   -1.446895e-14
   1.839497e-04    2.920344e+06   -9.525762e+00    2.920353e+06    0.000000e+00    9.777044e+04    0.000000e+00    3.979396e+00    6.581599e+01   -1.446853e-14
   1.850414e-04    2.894517e+06   -7.942194e+00    2.894525e+06    0.000000e+00    9.719312e+04    0.000000e+00    3.979396e+00    6.581559e+01   -1.446811e-14
   1.861396e-04    2.868916e+06   -8.916162e+00    2.868925e+06    0.000000e+00    9.661921e+04    0.000000e+00    3.979396e+00    6.581518e+01   -1.446768e-14
   1.872443e-04    2.843543e+06   -8.040019e+00    2.843551e+06    0.000000e+00    9.604868e+04    0.000000e+00    3.979396e+00    6.581477e+01   -1.446726e-14
   1.883556e-04    2.818394e+06   -8.449244e+00    2.818402e+06    0.000000e+00    9.548151e+04    0.000000e+00    3.979396e+00    6.581435e+01   -1.446683e-14
   1.894735e-04    2.793467e+06   -8.251895e+00    2.793475e+06    0.000000e+00    9.491770e+04    0.000000e+00    3.979396e+00    6.581394e+01   -1.446639e-14
   1.905980e-04    2.768760e+06   -8.109825e+00    2.768768e+06    0.000000e+00    9.435721e+04    0.000000e+00    3.979396e+00    6.581352e+01   -1.446596e-14
   1.917292e-04    2.744271e+06   -8.571810e+00    2.744280e+06    0.000000e+00    9.380002e+04    0.000000e+00    3.979396e+00    6.581310e+01   -1.446552e-14
   1.928671e-04    2.720000e+06   -7.899823e+00    2.720008e+06    0.000000e+00    9.324613e+04    0.000000e+00    3.979396e+00    6.581268e+01   -1.446508e-14
   1.940117e-04    2.695942e+06   -8.997032e+00    2.695951e+06    0.000000e+00    9.269550e+04    0.000000e+00    3.979396e+00    6.581225e+01   -1.446463e-14
   1.951632e-04    2.672098e+06   -7.811592e+00    2.672106e+06    0.000000e+00    9.214812e+04    0.000000e+00    3.979396e+00    6.581182e+01   -1.446419e-14
   1.963215e-04    2.648463e+06   -9.004133e+00    2.648472e+06    0.000000e+00    9.160397e+04    0.000000e+00    3.979396e+00    6.581139e+01   -1.446374e-14
   1.974866e-04    2.625040e+06   -7.836610e+00    2.625047e+06    0.000000e+00    9.106303e+04    0.000000e+00    3.979396e+00    6.581096e+01   -1.446329e-14
   1.986587e-04    2.601821e+06   -8.503496e+00    2.601829e+06    0.000000e+00    9.052528e+04    0.000000e+00    3.979396e+00    6.581052e+01   -1.446283e-14
   1.998377e-04    2.578809e+06   -7.967019e+00    2.578817e+06    0.000000e+00    8.999071e+04    0.000000e+00    3.979396e+00    6.581009e+01   -1.446238e-14
   2.010238e-04    2.555999e+06   -8.120345e+00    2.556008e+06    0.000000e+00    8.945929e+04    0.000000e+00    3.979396e+00    6.580965e+01   -1.446192e-14
   2.022168e-04    2.533392e+06   -8.195861e+00    2.533400e+06    0.000000e+00    8.893100e+04    0.000000e+00    3.979396e+00    6.580920e+01   -1.446145e-14
   2.034170e-04    2.510984e+06   -7.860671e+00    2.510992e+06    0.000000e+00    8.840583e+04    0.000000e+00    3.979396e+00    6.580876e+01   -1.446099e-14
   2.046242e-04    2.488774e+06   -8.522465e+00    2.488783e+06    0.000000e+00    8.788376e+04    0.000000e+00    3.979396e+00    6.580831e+01   -1.446052e-14
