# All units in Hartree [AU] if not specified
# Convergence: Err(φ)=3.870e-11, Err(n_e)=9.942e-11, Err(IET)=1.402e+01, Q_net=7.149e-07
# {"name":"Ar", "Z":18, "Zstar":0.4470374290898462, "A":39.948,  "μ[AU]": -9.8820298851e-03, "Te[AU]": 8.575e-03, "Ti[AU]": 8.575e-03, "rs[AU]": 1.372e+01 }
   r[AU]           n[AU]           nf[AU]          nb[AU]          n_ion[AU]       φtot[AU]        δVxc/δρ[Au]     U_ei[AU]        U_ii[AU]        g_ii            
   1.000000e-04    7.290098e+06    4.473783e+00    7.290094e+06    0.000000e+00    1.799172e+05    0.000000e+00   -1.307127e+01    8.402518e+00   -3.589127e-22
   1.005935e-04    7.225645e+06    2.112459e+00    7.225643e+06    0.000000e+00    1.788552e+05    0.000000e+00   -7.957074e+00    8.402491e+00   -3.589070e-22
   1.011905e-04    7.161764e+06    2.034337e+00    7.161762e+06    0.000000e+00    1.777995e+05    0.000000e+00   -7.761828e+00    8.402463e+00   -3.589013e-22
   1.017911e-04    7.098449e+06    4.323875e+00    7.098445e+06    0.000000e+00    1.767500e+05    0.000000e+00   -1.277947e+01    8.402436e+00   -3.588955e-22
   1.023952e-04    7.035692e+06    4.223468e+00    7.035688e+06    0.000000e+00    1.757067e+05    0.000000e+00   -1.258231e+01    8.402408e+00   -3.588897e-22
   1.030029e-04    6.973487e+06    1.764594e+00    6.973486e+06    0.000000e+00    1.746696e+05    0.000000e+00   -7.066532e+00    8.402381e+00   -3.588839e-22
   1.036142e-04    6.911835e+06    2.194994e+00    6.911833e+06    0.000000e+00    1.736386e+05    0.000000e+00   -8.161058e+00    8.402353e+00   -3.588780e-22
   1.042292e-04    6.850730e+06    4.234285e+00    6.850725e+06    0.000000e+00    1.726136e+05    0.000000e+00   -1.260378e+01    8.402324e+00   -3.588721e-22
   1.048478e-04    6.790162e+06    3.959801e+00    6.790158e+06    0.000000e+00    1.715947e+05    0.000000e+00   -1.205621e+01    8.402296e+00   -3.588661e-22
   1.054700e-04    6.730127e+06    1.416318e+00    6.730126e+06    0.000000e+00    1.705818e+05    0.000000e+00   -6.113725e+00    8.402268e+00   -3.588602e-22
   1.060960e-04    6.670626e+06    2.345671e+00    6.670624e+06    0.000000e+00    1.695749e+05    0.000000e+00   -8.526980e+00    8.402239e+00   -3.588542e-22
   1.067257e-04    6.611652e+06    4.139138e+00    6.611648e+06    0.000000e+00    1.685740e+05    0.000000e+00   -1.241558e+01    8.402210e+00   -3.588481e-22
   1.073591e-04    6.553197e+06    3.689122e+00    6.553193e+06    0.000000e+00    1.675789e+05    0.000000e+00   -1.150406e+01    8.402181e+00   -3.588420e-22
   1.079962e-04    6.495257e+06    1.085281e+00    6.495256e+06    0.000000e+00    1.665897e+05    0.000000e+00   -5.132451e+00    8.402152e+00   -3.588359e-22
   1.086372e-04    6.437832e+06    2.464326e+00    6.437830e+06    0.000000e+00    1.656064e+05    0.000000e+00   -8.809378e+00    8.402123e+00   -3.588298e-22
   1.092819e-04    6.380915e+06    4.026166e+00    6.380911e+06    0.000000e+00    1.646288e+05    0.000000e+00   -1.219001e+01    8.402094e+00   -3.588236e-22
   1.099305e-04    6.324500e+06    3.430248e+00    6.324496e+06    0.000000e+00    1.636570e+05    0.000000e+00   -1.096335e+01    8.402064e+00   -3.588173e-22
   1.105830e-04    6.268580e+06    7.430237e-01    6.268579e+06    0.000000e+00    1.626910e+05    0.000000e+00   -4.004352e+00    8.402034e+00   -3.588111e-22
   1.112393e-04    6.213160e+06    2.554864e+00    6.213157e+06    0.000000e+00    1.617306e+05    0.000000e+00   -9.021761e+00    8.402004e+00   -3.588048e-22
   1.118995e-04    6.158228e+06    3.896078e+00    6.158224e+06    0.000000e+00    1.607759e+05    0.000000e+00   -1.192773e+01    8.401974e+00   -3.587984e-22
   1.125636e-04    6.103781e+06    3.175059e+00    6.103777e+06    0.000000e+00    1.598269e+05    0.000000e+00   -1.041605e+01    8.401944e+00   -3.587920e-22
   1.132316e-04    6.049812e+06    4.083879e-01    6.049812e+06    0.000000e+00    1.588834e+05    0.000000e+00   -2.712591e+00    8.401913e+00   -3.587856e-22
   1.139037e-04    5.996325e+06    2.629948e+00    5.996323e+06    0.000000e+00    1.579455e+05    0.000000e+00   -9.196169e+00    8.401882e+00   -3.587792e-22
   1.145797e-04    5.943310e+06    3.770137e+00    5.943307e+06    0.000000e+00    1.570132e+05    0.000000e+00   -1.167100e+01    8.401851e+00   -3.587727e-22
   1.152597e-04    5.890762e+06    2.916001e+00    5.890759e+06    0.000000e+00    1.560863e+05    0.000000e+00   -9.846203e+00    8.401820e+00   -3.587662e-22
   1.159437e-04    5.838676e+06    9.873103e-02    5.838676e+06    0.000000e+00    1.551649e+05    0.000000e+00   -1.100697e+00    8.401789e+00   -3.587596e-22
   1.166319e-04    5.787056e+06    2.695448e+00    5.787053e+06    0.000000e+00    1.542490e+05    0.000000e+00   -9.347228e+00    8.401758e+00   -3.587530e-22
   1.173241e-04    5.735890e+06    3.636544e+00    5.735887e+06    0.000000e+00    1.533384e+05    0.000000e+00   -1.139547e+01    8.401726e+00   -3.587463e-22
   1.180204e-04    5.685175e+06    2.657063e+00    5.685172e+06    0.000000e+00    1.524333e+05    0.000000e+00   -9.259055e+00    8.401694e+00   -3.587396e-22
   1.187208e-04    5.634906e+06    6.534467e-02    5.634906e+06    0.000000e+00    1.515334e+05    0.000000e+00   -8.547600e-01    8.401662e+00   -3.587329e-22
   1.194254e-04    5.585087e+06    2.733759e+00    5.585085e+06    0.000000e+00    1.506389e+05    0.000000e+00   -9.434792e+00    8.401630e+00   -3.587262e-22
   1.201342e-04    5.535707e+06    3.487448e+00    5.535703e+06    0.000000e+00    1.497497e+05    0.000000e+00   -1.108349e+01    8.401598e+00   -3.587193e-22
   1.208472e-04    5.486761e+06    2.389771e+00    5.486758e+06    0.000000e+00    1.488657e+05    0.000000e+00   -8.632367e+00    8.401565e+00   -3.587125e-22
   1.215644e-04    5.438246e+06    3.167721e-01    5.438246e+06    0.000000e+00    1.479869e+05    0.000000e+00   -2.302192e+00    8.401532e+00   -3.587056e-22
   1.222859e-04    5.390165e+06    2.740127e+00    5.390162e+06    0.000000e+00    1.471133e+05    0.000000e+00   -9.449395e+00    8.401499e+00   -3.586987e-22
   1.230117e-04    5.342507e+06    3.340003e+00    5.342504e+06    0.000000e+00    1.462448e+05    0.000000e+00   -1.077155e+01    8.401466e+00   -3.586917e-22
   1.237417e-04    5.295269e+06    2.134743e+00    5.295266e+06    0.000000e+00    1.453815e+05    0.000000e+00   -8.012573e+00    8.401433e+00   -3.586847e-22
   1.244761e-04    5.248447e+06    5.409965e-01    5.248447e+06    0.000000e+00    1.445233e+05    0.000000e+00   -3.255741e+00    8.401399e+00   -3.586777e-22
   1.252149e-04    5.202043e+06    2.749302e+00    5.202041e+06    0.000000e+00    1.436701e+05    0.000000e+00   -9.470374e+00    8.401365e+00   -3.586706e-22
   1.259580e-04    5.156048e+06    3.188489e+00    5.156045e+06    0.000000e+00    1.428220e+05    0.000000e+00   -1.044543e+01    8.401331e+00   -3.586634e-22
   1.267056e-04    5.110457e+06    1.887002e+00    5.110455e+06    0.000000e+00    1.419789e+05    0.000000e+00   -7.386220e+00    8.401297e+00   -3.586562e-22
   1.274576e-04    5.065270e+06    7.591594e-01    5.065269e+06    0.000000e+00    1.411407e+05    0.000000e+00   -4.060816e+00    8.401263e+00   -3.586490e-22
   1.282140e-04    5.020485e+06    2.742412e+00    5.020482e+06    0.000000e+00    1.403075e+05    0.000000e+00   -9.454627e+00    8.401228e+00   -3.586418e-22
   1.289750e-04    4.976094e+06    3.024745e+00    4.976091e+06    0.000000e+00    1.394792e+05    0.000000e+00   -1.008766e+01    8.401193e+00   -3.586345e-22
   1.297404e-04    4.932094e+06    1.637762e+00    4.932092e+06    0.000000e+00    1.386558e+05    0.000000e+00   -6.727651e+00    8.401158e+00   -3.586271e-22
   1.305104e-04    4.888483e+06    9.318653e-01    4.888482e+06    0.000000e+00    1.378373e+05    0.000000e+00   -4.644157e+00    8.401123e+00   -3.586197e-22
   1.312850e-04    4.845260e+06    2.721516e+00    4.845258e+06    0.000000e+00    1.370236e+05    0.000000e+00   -9.406621e+00    8.401088e+00   -3.586123e-22
   1.320642e-04    4.802418e+06    2.854980e+00    4.802415e+06    0.000000e+00    1.362146e+05    0.000000e+00   -9.709540e+00    8.401052e+00   -3.586048e-22
   1.328480e-04    4.759953e+06    1.386788e+00    4.759951e+06    0.000000e+00    1.354105e+05    0.000000e+00   -6.029766e+00    8.401016e+00   -3.585973e-22
   1.336364e-04    4.717864e+06    1.089017e+00    4.717863e+06    0.000000e+00    1.346111e+05    0.000000e+00   -5.144027e+00    8.400980e+00   -3.585897e-22
   1.344295e-04    4.676149e+06    2.684548e+00    4.676147e+06    0.000000e+00    1.338164e+05    0.000000e+00   -9.322318e+00    8.400944e+00   -3.585821e-22
   1.352274e-04    4.634802e+06    2.689815e+00    4.634799e+06    0.000000e+00    1.330264e+05    0.000000e+00   -9.334366e+00    8.400908e+00   -3.585744e-22
   1.360299e-04    4.593818e+06    1.150694e+00    4.593817e+06    0.000000e+00    1.322411e+05    0.000000e+00   -5.333533e+00    8.400871e+00   -3.585667e-22
   1.368372e-04    4.553198e+06    1.219873e+00    4.553197e+06    0.000000e+00    1.314604e+05    0.000000e+00   -5.542050e+00    8.400834e+00   -3.585590e-22
   1.376494e-04    4.512938e+06    2.637327e+00    4.512936e+06    0.000000e+00    1.306843e+05    0.000000e+00   -9.213221e+00    8.400797e+00   -3.585512e-22
   1.384663e-04    4.473033e+06    2.521212e+00    4.473031e+06    0.000000e+00    1.299128e+05    0.000000e+00   -8.943467e+00    8.400760e+00   -3.585433e-22
   1.392881e-04    4.433479e+06    9.052743e-01    4.433478e+06    0.000000e+00    1.291458e+05    0.000000e+00   -4.556863e+00    8.400722e+00   -3.585355e-22
   1.401148e-04    4.394277e+06    1.335924e+00    4.394275e+06    0.000000e+00    1.283834e+05    0.000000e+00   -5.883237e+00    8.400684e+00   -3.585275e-22
   1.409463e-04    4.355422e+06    2.579367e+00    4.355419e+06    0.000000e+00    1.276255e+05    0.000000e+00   -9.079236e+00    8.400646e+00   -3.585195e-22
   1.417828e-04    4.316908e+06    2.351051e+00    4.316906e+06    0.000000e+00    1.268720e+05    0.000000e+00   -8.539941e+00    8.400608e+00   -3.585115e-22
   1.426243e-04    4.278734e+06    6.754570e-01    4.278734e+06    0.000000e+00    1.261230e+05    0.000000e+00   -3.762569e+00    8.400570e+00   -3.585034e-22
   1.434708e-04    4.240900e+06    1.442376e+00    4.240899e+06    0.000000e+00    1.253784e+05    0.000000e+00   -6.187742e+00    8.400531e+00   -3.584953e-22
   1.443223e-04    4.203400e+06    2.515718e+00    4.203398e+06    0.000000e+00    1.246382e+05    0.000000e+00   -8.930599e+00    8.400492e+00   -3.584871e-22
   1.451788e-04    4.166231e+06    2.177515e+00    4.166229e+06    0.000000e+00    1.239023e+05    0.000000e+00   -8.118042e+00    8.400453e+00   -3.584789e-22
   1.460404e-04    4.129389e+06    4.507105e-01    4.129388e+06    0.000000e+00    1.231708e+05    0.000000e+00   -2.891641e+00    8.400413e+00   -3.584706e-22
   1.469072e-04    4.092875e+06    1.523120e+00    4.092873e+06    0.000000e+00    1.224436e+05    0.000000e+00   -6.413684e+00    8.400374e+00   -3.584623e-22
   1.477791e-04    4.056683e+06    2.442772e+00    4.056681e+06    0.000000e+00    1.217207e+05    0.000000e+00   -8.758632e+00    8.400334e+00   -3.584539e-22
   1.486561e-04    4.020810e+06    1.996665e+00    4.020808e+06    0.000000e+00    1.210021e+05    0.000000e+00   -7.666490e+00    8.400294e+00   -3.584455e-22
   1.495384e-04    3.985253e+06    2.189080e-01    3.985253e+06    0.000000e+00    1.202877e+05    0.000000e+00   -1.816615e+00    8.400254e+00   -3.584371e-22
   1.504259e-04    3.950014e+06    1.581038e+00    3.950012e+06    0.000000e+00    1.195775e+05    0.000000e+00   -6.573284e+00    8.400213e+00   -3.584285e-22
   1.513187e-04    3.915085e+06    2.365301e+00    3.915082e+06    0.000000e+00    1.188716e+05    0.000000e+00   -8.574131e+00    8.400172e+00   -3.584200e-22
   1.522167e-04    3.880463e+06    1.821398e+00    3.880462e+06    0.000000e+00    1.181697e+05    0.000000e+00   -7.215729e+00    8.400131e+00   -3.584114e-22
   1.531201e-04    3.846147e+06   -8.864343e-03    3.846147e+06    0.000000e+00    1.174721e+05    0.000000e+00    4.349887e-01    8.400090e+00   -3.584027e-22
   1.540289e-04    3.812137e+06    1.627095e+00    3.812135e+06    0.000000e+00    1.167785e+05    0.000000e+00   -6.698827e+00    8.400048e+00   -3.583940e-22
   1.549430e-04    3.778427e+06    2.280679e+00    3.778425e+06    0.000000e+00    1.160890e+05    0.000000e+00   -8.370252e+00    8.400007e+00   -3.583852e-22
   1.558626e-04    3.745013e+06    1.648702e+00    3.745012e+06    0.000000e+00    1.154036e+05    0.000000e+00   -6.757018e+00    8.399965e+00   -3.583764e-22
   1.567877e-04    3.711894e+06   -1.175460e-01    3.711894e+06    0.000000e+00    1.147223e+05    0.000000e+00    4.349887e-01    8.399922e+00   -3.583675e-22
   1.577182e-04    3.679071e+06    1.667894e+00    3.679069e+06    0.000000e+00    1.140449e+05    0.000000e+00   -6.808994e+00    8.399880e+00   -3.583586e-22
   1.586542e-04    3.646537e+06    2.185343e+00    3.646535e+06    0.000000e+00    1.133716e+05    0.000000e+00   -8.137139e+00    8.399837e+00   -3.583496e-22
   1.595958e-04    3.614289e+06    1.474870e+00    3.614287e+06    0.000000e+00    1.127022e+05    0.000000e+00   -6.279165e+00    8.399794e+00   -3.583405e-22
   1.605430e-04    3.582325e+06    7.589081e-02    3.582325e+06    0.000000e+00    1.120368e+05    0.000000e+00   -9.361743e-01    8.399751e+00   -3.583315e-22
   1.614958e-04    3.550647e+06    1.691092e+00    3.550646e+06    0.000000e+00    1.113753e+05    0.000000e+00   -6.871202e+00    8.399707e+00   -3.583223e-22
   1.624543e-04    3.519248e+06    2.084207e+00    3.519246e+06    0.000000e+00    1.107177e+05    0.000000e+00   -7.886959e+00    8.399663e+00   -3.583131e-22
   1.634185e-04    3.488125e+06    1.297236e+00    3.488124e+06    0.000000e+00    1.100640e+05    0.000000e+00   -5.770656e+00    8.399619e+00   -3.583039e-22
   1.643883e-04    3.457277e+06    2.390795e-01    3.457277e+06    0.000000e+00    1.094141e+05    0.000000e+00   -1.921835e+00    8.399575e+00   -3.582946e-22
   1.653640e-04    3.426705e+06    1.699501e+00    3.426703e+06    0.000000e+00    1.087681e+05    0.000000e+00   -6.893540e+00    8.399530e+00   -3.582852e-22
   1.663454e-04    3.396401e+06    1.983491e+00    3.396399e+06    0.000000e+00    1.081259e+05    0.000000e+00   -7.633083e+00    8.399485e+00   -3.582758e-22
   1.673327e-04    3.366364e+06    1.127213e+00    3.366363e+06    0.000000e+00    1.074875e+05    0.000000e+00   -5.261751e+00    8.399440e+00   -3.582663e-22
   1.683258e-04    3.336592e+06    3.881915e-01    3.336592e+06    0.000000e+00    1.068528e+05    0.000000e+00   -2.625099e+00    8.399395e+00   -3.582568e-22
   1.693248e-04    3.307086e+06    1.697610e+00    3.307085e+06    0.000000e+00    1.062219e+05    0.000000e+00   -6.888527e+00    8.399349e+00   -3.582472e-22
   1.703297e-04    3.277840e+06    1.877036e+00    3.277838e+06    0.000000e+00    1.055947e+05    0.000000e+00   -7.360309e+00    8.399303e+00   -3.582375e-22
   1.713406e-04    3.248851e+06    9.491929e-01    3.248850e+06    0.000000e+00    1.049713e+05    0.000000e+00   -4.700508e+00    8.399257e+00   -3.582278e-22
   1.723575e-04    3.220118e+06    5.190068e-01    3.220118e+06    0.000000e+00    1.043515e+05    0.000000e+00   -3.169074e+00    8.399211e+00   -3.582181e-22
   1.733804e-04    3.191641e+06    1.686027e+00    3.191640e+06    0.000000e+00    1.037353e+05    0.000000e+00   -6.857693e+00    8.399164e+00   -3.582083e-22
   1.744094e-04    3.163415e+06    1.767329e+00    3.163413e+06    0.000000e+00    1.031228e+05    0.000000e+00   -7.073805e+00    8.399117e+00   -3.581984e-22
   1.754445e-04    3.135438e+06    7.818369e-01    3.135437e+06    0.000000e+00    1.025139e+05    0.000000e+00   -4.139737e+00    8.399070e+00   -3.581885e-22
   1.764858e-04    3.107708e+06    6.402693e-01    3.107707e+06    0.000000e+00    1.019086e+05    0.000000e+00   -3.633520e+00    8.399022e+00   -3.581785e-22
   1.775332e-04    3.080225e+06    1.665113e+00    3.080223e+06    0.000000e+00    1.013068e+05    0.000000e+00   -6.801478e+00    8.398974e+00   -3.581684e-22
   1.785869e-04    3.052983e+06    1.651147e+00    3.052981e+06    0.000000e+00    1.007087e+05    0.000000e+00   -6.763555e+00    8.398926e+00   -3.581583e-22
   1.796468e-04    3.025981e+06    6.166722e-01    3.025981e+06    0.000000e+00    1.001140e+05    0.000000e+00   -3.545610e+00    8.398877e+00   -3.581482e-22
   1.807130e-04    2.999220e+06    7.386863e-01    2.999219e+06    0.000000e+00    9.952284e+04    0.000000e+00   -3.988976e+00    8.398829e+00   -3.581379e-22
   1.817855e-04    2.972695e+06    1.642369e+00    2.972694e+06    0.000000e+00    9.893518e+04    0.000000e+00   -6.740041e+00    8.398780e+00   -3.581276e-22
   1.828644e-04    2.946404e+06    1.533734e+00    2.946403e+06    0.000000e+00    9.835099e+04    0.000000e+00   -6.443072e+00    8.398730e+00   -3.581173e-22
   1.839497e-04    2.920344e+06    4.455127e-01    2.920344e+06    0.000000e+00    9.777024e+04    0.000000e+00   -2.869908e+00    8.398681e+00   -3.581069e-22
   1.850414e-04    2.894517e+06    8.143381e-01    2.894516e+06    0.000000e+00    9.719292e+04    0.000000e+00   -4.251680e+00    8.398631e+00   -3.580964e-22
   1.861396e-04    2.868918e+06    1.601619e+00    2.868916e+06    0.000000e+00    9.661900e+04    0.000000e+00   -6.629212e+00    8.398581e+00   -3.580859e-22
   1.872443e-04    2.843544e+06    1.415234e+00    2.843542e+06    0.000000e+00    9.604847e+04    0.000000e+00   -6.110617e+00    8.398530e+00   -3.580753e-22
   1.883556e-04    2.818393e+06    2.756411e-01    2.818393e+06    0.000000e+00    9.548131e+04    0.000000e+00   -2.105351e+00    8.398479e+00   -3.580646e-22
   1.894735e-04    2.793467e+06    8.849127e-01    2.793466e+06    0.000000e+00    9.491749e+04    0.000000e+00   -4.489294e+00    8.398428e+00   -3.580539e-22
   1.905980e-04    2.768761e+06    1.564594e+00    2.768759e+06    0.000000e+00    9.435700e+04    0.000000e+00   -6.528109e+00    8.398377e+00   -3.580431e-22
   1.917292e-04    2.744272e+06    1.296432e+00    2.744271e+06    0.000000e+00    9.379982e+04    0.000000e+00   -5.768290e+00    8.398325e+00   -3.580323e-22
   1.928671e-04    2.719999e+06    1.119682e-01    2.719999e+06    0.000000e+00    9.324592e+04    0.000000e+00   -1.190148e+00    8.398273e+00   -3.580213e-22
   1.940117e-04    2.695943e+06    9.459563e-01    2.695942e+06    0.000000e+00    9.269530e+04    0.000000e+00   -4.689918e+00    8.398221e+00   -3.580104e-22
   1.951632e-04    2.672099e+06    1.513294e+00    2.672097e+06    0.000000e+00    9.214792e+04    0.000000e+00   -6.386295e+00    8.398168e+00   -3.579993e-22
   1.963215e-04    2.648465e+06    1.175862e+00    2.648464e+06    0.000000e+00    9.160377e+04    0.000000e+00   -5.409699e+00    8.398115e+00   -3.579882e-22
   1.974866e-04    2.625039e+06   -4.550856e-02    2.625039e+06    0.000000e+00    9.106283e+04    0.000000e+00    4.349887e-01    8.398062e+00   -3.579770e-22
   1.986587e-04    2.601822e+06    9.931229e-01    2.601821e+06    0.000000e+00    9.052508e+04    0.000000e+00   -4.842103e+00    8.398009e+00   -3.579658e-22
   1.998377e-04    2.578810e+06    1.456623e+00    2.578808e+06    0.000000e+00    8.999051e+04    0.000000e+00   -6.227646e+00    8.397955e+00   -3.579545e-22
   2.010238e-04    2.556000e+06    1.049348e+00    2.555999e+06    0.000000e+00    8.945908e+04    0.000000e+00   -5.020264e+00    8.397900e+00   -3.579431e-22
   2.022168e-04    2.533391e+06   -2.041002e-01    2.533391e+06    0.000000e+00    8.893080e+04    0.000000e+00    4.349887e-01    8.397846e+00   -3.579317e-22
   2.034170e-04    2.510985e+06    1.023468e+00    2.510984e+06    0.000000e+00    8.840563e+04    0.000000e+00   -4.938663e+00    8.397791e+00   -3.579202e-22
   2.046242e-04    2.488775e+06    1.397848e+00    2.488774e+06    0.000000e+00    8.788356e+04    0.000000e+00   -6.061354e+00    8.397736e+00   -3.579086e-22
