# All units in Hartree [AU] if not specified
# Convergence: Err(φ)=4.002e-11, Err(n_e)=8.017e-11, Err(IET)=4.553e+19, Q_net=5.775e-07
# {"name":"Ar", "Z":18, "Zstar":0.42583526295878116, "A":39.948,  "μ[AU]": -7.3077043353e-03, "Te[AU]": 7.413e-03, "Ti[AU]": 7.413e-03, "rs[AU]": 1.372e+01 }
   r[AU]           n[AU]           nf[AU]          nb[AU]          n_ion[AU]       φtot[AU]        δVxc/δρ[Au]     U_ei[AU]        U_ii[AU]        g_ii            
   1.000000e-04    7.290097e+06    3.556251e+00    7.290094e+06    0.000000e+00    1.799172e+05    0.000000e+00   -1.122339e+01    7.614264e+00   -2.689088e-02
   1.005935e-04    7.225648e+06    4.875938e+00    7.225643e+06    0.000000e+00    1.788552e+05    0.000000e+00   -1.383420e+01    7.614239e+00   -2.689046e-02
   1.011905e-04    7.161766e+06    3.978028e+00    7.161762e+06    0.000000e+00    1.777995e+05    0.000000e+00   -1.208837e+01    7.614215e+00   -2.689003e-02
   1.017911e-04    7.098446e+06    8.979613e-01    7.098445e+06    0.000000e+00    1.767500e+05    0.000000e+00   -4.527911e+00    7.614190e+00   -2.688959e-02
   1.023952e-04    7.035691e+06    3.099784e+00    7.035688e+06    0.000000e+00    1.757067e+05    0.000000e+00   -1.024758e+01    7.614165e+00   -2.688916e-02
   1.030029e-04    6.973490e+06    4.650117e+00    6.973486e+06    0.000000e+00    1.746696e+05    0.000000e+00   -1.340616e+01    7.614140e+00   -2.688872e-02
   1.036142e-04    6.911837e+06    4.037568e+00    6.911833e+06    0.000000e+00    1.736386e+05    0.000000e+00   -1.220791e+01    7.614115e+00   -2.688828e-02
   1.042292e-04    6.850727e+06    1.344846e+00    6.850725e+06    0.000000e+00    1.726136e+05    0.000000e+00   -5.904336e+00    7.614089e+00   -2.688784e-02
   1.048478e-04    6.790160e+06    2.644701e+00    6.790158e+06    0.000000e+00    1.715947e+05    0.000000e+00   -9.225588e+00    7.614064e+00   -2.688740e-02
   1.054700e-04    6.730130e+06    4.394668e+00    6.730125e+06    0.000000e+00    1.705818e+05    0.000000e+00   -1.291342e+01    7.614038e+00   -2.688695e-02
   1.060960e-04    6.670628e+06    4.059831e+00    6.670624e+06    0.000000e+00    1.695749e+05    0.000000e+00   -1.225216e+01    7.614012e+00   -2.688650e-02
   1.067257e-04    6.611650e+06    1.701405e+00    6.611648e+06    0.000000e+00    1.685740e+05    0.000000e+00   -6.893719e+00    7.613986e+00   -2.688604e-02
   1.073591e-04    6.553196e+06    2.192479e+00    6.553193e+06    0.000000e+00    1.675789e+05    0.000000e+00   -8.150033e+00    7.613960e+00   -2.688559e-02
   1.079962e-04    6.495260e+06    4.129110e+00    6.495255e+06    0.000000e+00    1.665897e+05    0.000000e+00   -1.239081e+01    7.613934e+00   -2.688513e-02
   1.086372e-04    6.437834e+06    4.055682e+00    6.437830e+06    0.000000e+00    1.656064e+05    0.000000e+00   -1.224393e+01    7.613907e+00   -2.688467e-02
   1.092819e-04    6.380913e+06    2.014780e+00    6.380911e+06    0.000000e+00    1.646288e+05    0.000000e+00   -7.707732e+00    7.613881e+00   -2.688420e-02
   1.099305e-04    6.324498e+06    1.728526e+00    6.324496e+06    0.000000e+00    1.636570e+05    0.000000e+00   -6.966352e+00    7.613854e+00   -2.688374e-02
   1.105830e-04    6.268583e+06    3.840152e+00    6.268579e+06    0.000000e+00    1.626910e+05    0.000000e+00   -1.180893e+01    7.613827e+00   -2.688327e-02
   1.112393e-04    6.213161e+06    4.009853e+00    6.213157e+06    0.000000e+00    1.617306e+05    0.000000e+00   -1.215249e+01    7.613800e+00   -2.688280e-02
   1.118995e-04    6.158227e+06    2.281728e+00    6.158224e+06    0.000000e+00    1.607759e+05    0.000000e+00   -8.367978e+00    7.613773e+00   -2.688232e-02
   1.125636e-04    6.103779e+06    1.288618e+00    6.103777e+06    0.000000e+00    1.598269e+05    0.000000e+00   -5.740423e+00    7.613745e+00   -2.688184e-02
   1.132316e-04    6.049815e+06    3.549224e+00    6.049811e+06    0.000000e+00    1.588834e+05    0.000000e+00   -1.120875e+01    7.613718e+00   -2.688136e-02
   1.139037e-04    5.996327e+06    3.932122e+00    5.996323e+06    0.000000e+00    1.579455e+05    0.000000e+00   -1.199546e+01    7.613690e+00   -2.688088e-02
   1.145797e-04    5.943309e+06    2.487855e+00    5.943306e+06    0.000000e+00    1.570132e+05    0.000000e+00   -8.860112e+00    7.613662e+00   -2.688039e-02
   1.152597e-04    5.890760e+06    8.291192e-01    5.890759e+06    0.000000e+00    1.560863e+05    0.000000e+00   -4.297109e+00    7.613634e+00   -2.687990e-02
   1.159437e-04    5.838679e+06    3.250799e+00    5.838676e+06    0.000000e+00    1.551649e+05    0.000000e+00   -1.057532e+01    7.613606e+00   -2.687941e-02
   1.166319e-04    5.787057e+06    3.839761e+00    5.787053e+06    0.000000e+00    1.542490e+05    0.000000e+00   -1.180813e+01    7.613577e+00   -2.687892e-02
   1.173241e-04    5.735889e+06    2.657659e+00    5.735887e+06    0.000000e+00    1.533384e+05    0.000000e+00   -9.255618e+00    7.613549e+00   -2.687842e-02
   1.180204e-04    5.685173e+06    3.829389e-01    5.685172e+06    0.000000e+00    1.524333e+05    0.000000e+00   -2.597140e+00    7.613520e+00   -2.687792e-02
   1.187208e-04    5.634909e+06    2.929170e+00    5.634906e+06    0.000000e+00    1.515334e+05    0.000000e+00   -9.870857e+00    7.613491e+00   -2.687741e-02
   1.194254e-04    5.585088e+06    3.714019e+00    5.585085e+06    0.000000e+00    1.506389e+05    0.000000e+00   -1.155039e+01    7.613462e+00   -2.687691e-02
   1.201342e-04    5.535706e+06    2.781395e+00    5.535703e+06    0.000000e+00    1.497497e+05    0.000000e+00   -9.538358e+00    7.613433e+00   -2.687640e-02
   1.208472e-04    5.486758e+06    1.662965e-01    5.486758e+06    0.000000e+00    1.488657e+05    0.000000e+00   -1.520779e+00    7.613403e+00   -2.687588e-02
   1.215644e-04    5.438248e+06    2.603167e+00    5.438246e+06    0.000000e+00    1.479869e+05    0.000000e+00   -9.129694e+00    7.613374e+00   -2.687537e-02
   1.222859e-04    5.390166e+06    3.560460e+00    5.390162e+06    0.000000e+00    1.471133e+05    0.000000e+00   -1.123215e+01    7.613344e+00   -2.687485e-02
   1.230117e-04    5.342506e+06    2.864398e+00    5.342504e+06    0.000000e+00    1.462448e+05    0.000000e+00   -9.725790e+00    7.613314e+00   -2.687433e-02
   1.237417e-04    5.295267e+06    5.544768e-01    5.295266e+06    0.000000e+00    1.453815e+05    0.000000e+00   -3.303425e+00    7.613284e+00   -2.687380e-02
   1.244761e-04    5.248449e+06    2.288613e+00    5.248446e+06    0.000000e+00    1.445233e+05    0.000000e+00   -8.384664e+00    7.613254e+00   -2.687327e-02
   1.252149e-04    5.202044e+06    3.403444e+00    5.202040e+06    0.000000e+00    1.436701e+05    0.000000e+00   -1.090162e+01    7.613223e+00   -2.687274e-02
   1.259580e-04    5.156047e+06    2.915294e+00    5.156045e+06    0.000000e+00    1.428220e+05    0.000000e+00   -9.839806e+00    7.613192e+00   -2.687221e-02
   1.267056e-04    5.110456e+06    8.702625e-01    5.110455e+06    0.000000e+00    1.419789e+05    0.000000e+00   -4.435833e+00    7.613161e+00   -2.687167e-02
   1.274576e-04    5.065271e+06    1.952676e+00    5.065269e+06    0.000000e+00    1.411407e+05    0.000000e+00   -7.550035e+00    7.613130e+00   -2.687113e-02
   1.282140e-04    5.020485e+06    3.224856e+00    5.020482e+06    0.000000e+00    1.403075e+05    0.000000e+00   -1.051956e+01    7.613099e+00   -2.687058e-02
   1.289750e-04    4.976094e+06    2.942828e+00    4.976091e+06    0.000000e+00    1.394792e+05    0.000000e+00   -9.901275e+00    7.613068e+00   -2.687004e-02
   1.297404e-04    4.932093e+06    1.151699e+00    4.932092e+06    0.000000e+00    1.386558e+05    0.000000e+00   -5.331770e+00    7.613036e+00   -2.686949e-02
   1.305104e-04    4.888484e+06    1.624343e+00    4.888482e+06    0.000000e+00    1.378373e+05    0.000000e+00   -6.686528e+00    7.613004e+00   -2.686893e-02
   1.312850e-04    4.845261e+06    3.028190e+00    4.845257e+06    0.000000e+00    1.370236e+05    0.000000e+00   -1.009043e+01    7.612972e+00   -2.686837e-02
   1.320642e-04    4.802418e+06    2.936380e+00    4.802415e+06    0.000000e+00    1.362146e+05    0.000000e+00   -9.886932e+00    7.612940e+00   -2.686781e-02
   1.328480e-04    4.759953e+06    1.384841e+00    4.759951e+06    0.000000e+00    1.354105e+05    0.000000e+00   -6.019356e+00    7.612908e+00   -2.686725e-02
   1.336364e-04    4.717864e+06    1.299735e+00    4.717863e+06    0.000000e+00    1.346111e+05    0.000000e+00   -5.773178e+00    7.612875e+00   -2.686668e-02
   1.344295e-04    4.676149e+06    2.826969e+00    4.676146e+06    0.000000e+00    1.338164e+05    0.000000e+00   -9.641547e+00    7.612843e+00   -2.686611e-02
   1.352274e-04    4.634802e+06    2.906479e+00    4.634799e+06    0.000000e+00    1.330264e+05    0.000000e+00   -9.820005e+00    7.612810e+00   -2.686554e-02
   1.360299e-04    4.593818e+06    1.566893e+00    4.593817e+06    0.000000e+00    1.322411e+05    0.000000e+00   -6.529635e+00    7.612777e+00   -2.686496e-02
   1.368372e-04    4.553197e+06    9.616426e-01    4.553197e+06    0.000000e+00    1.314604e+05    0.000000e+00   -4.736070e+00    7.612743e+00   -2.686438e-02
   1.376494e-04    4.512938e+06    2.614468e+00    4.512936e+06    0.000000e+00    1.306843e+05    0.000000e+00   -9.155764e+00    7.612710e+00   -2.686380e-02
   1.384663e-04    4.473033e+06    2.855754e+00    4.473030e+06    0.000000e+00    1.299128e+05    0.000000e+00   -9.706432e+00    7.612676e+00   -2.686321e-02
   1.392881e-04    4.433480e+06    1.728071e+00    4.433478e+06    0.000000e+00    1.291458e+05    0.000000e+00   -6.965141e+00    7.612642e+00   -2.686262e-02
   1.401148e-04    4.394276e+06    6.388460e-01    4.394275e+06    0.000000e+00    1.283834e+05    0.000000e+00   -3.623422e+00    7.612608e+00   -2.686202e-02
   1.409463e-04    4.355421e+06    2.390758e+00    4.355419e+06    0.000000e+00    1.276255e+05    0.000000e+00   -8.629834e+00    7.612574e+00   -2.686143e-02
   1.417828e-04    4.316909e+06    2.785551e+00    4.316906e+06    0.000000e+00    1.268720e+05    0.000000e+00   -9.547723e+00    7.612539e+00   -2.686082e-02
   1.426243e-04    4.278735e+06    1.854307e+00    4.278734e+06    0.000000e+00    1.261230e+05    0.000000e+00   -7.296703e+00    7.612504e+00   -2.686022e-02
   1.434708e-04    4.240899e+06    3.254027e-01    4.240898e+06    0.000000e+00    1.253784e+05    0.000000e+00   -2.337617e+00    7.612469e+00   -2.685961e-02
   1.443223e-04    4.203400e+06    2.167573e+00    4.203398e+06    0.000000e+00    1.246382e+05    0.000000e+00   -8.088861e+00    7.612434e+00   -2.685900e-02
   1.451788e-04    4.166231e+06    2.702533e+00    4.166229e+06    0.000000e+00    1.239023e+05    0.000000e+00   -9.358501e+00    7.612399e+00   -2.685838e-02
   1.460404e-04    4.129390e+06    1.945299e+00    4.129388e+06    0.000000e+00    1.231708e+05    0.000000e+00   -7.531136e+00    7.612363e+00   -2.685776e-02
   1.469072e-04    4.092873e+06    5.878700e-03    4.092873e+06    0.000000e+00    1.224436e+05    0.000000e+00   -2.292161e-01    7.612328e+00   -2.685714e-02
   1.477791e-04    4.056683e+06    1.945724e+00    4.056681e+06    0.000000e+00    1.217207e+05    0.000000e+00   -7.532228e+00    7.612292e+00   -2.685651e-02
   1.486561e-04    4.020811e+06    2.606903e+00    4.020808e+06    0.000000e+00    1.210021e+05    0.000000e+00   -9.138326e+00    7.612255e+00   -2.685588e-02
   1.495384e-04    3.985255e+06    2.021190e+00    3.985253e+06    0.000000e+00    1.202877e+05    0.000000e+00   -7.723926e+00    7.612219e+00   -2.685525e-02
   1.504259e-04    3.950012e+06    2.205292e-01    3.950012e+06    0.000000e+00    1.195775e+05    0.000000e+00   -1.820423e+00    7.612182e+00   -2.685461e-02
   1.513187e-04    3.915084e+06    1.711115e+00    3.915082e+06    0.000000e+00    1.188716e+05    0.000000e+00   -6.919824e+00    7.612146e+00   -2.685397e-02
   1.522167e-04    3.880464e+06    2.490300e+00    3.880462e+06    0.000000e+00    1.181697e+05    0.000000e+00   -8.865901e+00    7.612108e+00   -2.685332e-02
   1.531201e-04    3.846149e+06    2.063213e+00    3.846147e+06    0.000000e+00    1.174721e+05    0.000000e+00   -7.829432e+00    7.612071e+00   -2.685267e-02
   1.540289e-04    3.812136e+06    4.688087e-01    3.812135e+06    0.000000e+00    1.167785e+05    0.000000e+00   -2.961658e+00    7.612034e+00   -2.685202e-02
   1.549430e-04    3.778426e+06    1.482615e+00    3.778424e+06    0.000000e+00    1.160890e+05    0.000000e+00   -6.296039e+00    7.611996e+00   -2.685136e-02
   1.558626e-04    3.745014e+06    2.365051e+00    3.745011e+06    0.000000e+00    1.154036e+05    0.000000e+00   -8.568698e+00    7.611958e+00   -2.685070e-02
   1.567877e-04    3.711896e+06    2.084405e+00    3.711894e+06    0.000000e+00    1.147223e+05    0.000000e+00   -7.882622e+00    7.611920e+00   -2.685003e-02
   1.577182e-04    3.679070e+06    6.732136e-01    3.679069e+06    0.000000e+00    1.140449e+05    0.000000e+00   -3.749542e+00    7.611881e+00   -2.684937e-02
   1.586542e-04    3.646536e+06    1.248623e+00    3.646534e+06    0.000000e+00    1.133716e+05    0.000000e+00   -5.622540e+00    7.611843e+00   -2.684869e-02
   1.595958e-04    3.614289e+06    2.229779e+00    3.614287e+06    0.000000e+00    1.127022e+05    0.000000e+00   -8.241558e+00    7.611804e+00   -2.684802e-02
   1.605430e-04    3.582327e+06    2.091025e+00    3.582325e+06    0.000000e+00    1.120368e+05    0.000000e+00   -7.899125e+00    7.611765e+00   -2.684733e-02
   1.614958e-04    3.550646e+06    8.502412e-01    3.550646e+06    0.000000e+00    1.113753e+05    0.000000e+00   -4.368639e+00    7.611725e+00   -2.684665e-02
   1.624543e-04    3.519247e+06    1.008655e+00    3.519246e+06    0.000000e+00    1.107177e+05    0.000000e+00   -4.886733e+00    7.611686e+00   -2.684596e-02
   1.634185e-04    3.488126e+06    2.082365e+00    3.488124e+06    0.000000e+00    1.100640e+05    0.000000e+00   -7.877524e+00    7.611646e+00   -2.684527e-02
   1.643883e-04    3.457279e+06    2.072421e+00    3.457277e+06    0.000000e+00    1.094141e+05    0.000000e+00   -7.852609e+00    7.611606e+00   -2.684457e-02
   1.653640e-04    3.426704e+06    1.003912e+00    3.426703e+06    0.000000e+00    1.087681e+05    0.000000e+00   -4.871510e+00    7.611566e+00   -2.684387e-02
   1.663454e-04    3.396400e+06    7.820816e-01    3.396399e+06    0.000000e+00    1.081259e+05    0.000000e+00   -4.135733e+00    7.611525e+00   -2.684316e-02
   1.673327e-04    3.366365e+06    1.936446e+00    3.366363e+06    0.000000e+00    1.074875e+05    0.000000e+00   -7.508359e+00    7.611485e+00   -2.684245e-02
   1.683258e-04    3.336594e+06    2.041223e+00    3.336592e+06    0.000000e+00    1.068528e+05    0.000000e+00   -7.774206e+00    7.611444e+00   -2.684174e-02
   1.693248e-04    3.307086e+06    1.124064e+00    3.307084e+06    0.000000e+00    1.062219e+05    0.000000e+00   -5.247290e+00    7.611402e+00   -2.684102e-02
   1.703297e-04    3.277838e+06    5.546377e-01    3.277838e+06    0.000000e+00    1.055947e+05    0.000000e+00   -3.304044e+00    7.611361e+00   -2.684030e-02
   1.713406e-04    3.248851e+06    1.785409e+00    3.248850e+06    0.000000e+00    1.049713e+05    0.000000e+00   -7.116752e+00    7.611319e+00   -2.683957e-02
   1.723575e-04    3.220120e+06    2.000778e+00    3.220118e+06    0.000000e+00    1.043515e+05    0.000000e+00   -7.672180e+00    7.611277e+00   -2.683884e-02
   1.733804e-04    3.191641e+06    1.230684e+00    3.191640e+06    0.000000e+00    1.037353e+05    0.000000e+00   -5.569506e+00    7.611235e+00   -2.683811e-02
   1.744094e-04    3.163414e+06    3.268102e-01    3.163413e+06    0.000000e+00    1.031228e+05    0.000000e+00   -2.344088e+00    7.611192e+00   -2.683737e-02
   1.754445e-04    3.135438e+06    1.626036e+00    3.135437e+06    0.000000e+00    1.025139e+05    0.000000e+00   -6.691123e+00    7.611150e+00   -2.683662e-02
   1.764858e-04    3.107709e+06    1.947230e+00    3.107707e+06    0.000000e+00    1.019086e+05    0.000000e+00   -7.536090e+00    7.611107e+00   -2.683587e-02
   1.775332e-04    3.080224e+06    1.310727e+00    3.080223e+06    0.000000e+00    1.013068e+05    0.000000e+00   -5.805289e+00    7.611064e+00   -2.683512e-02
   1.785869e-04    3.052981e+06    1.150014e-01    3.052981e+06    0.000000e+00    1.007086e+05    0.000000e+00   -1.205315e+00    7.611020e+00   -2.683436e-02
   1.796468e-04    3.025982e+06    1.469500e+00    3.025981e+06    0.000000e+00    1.001140e+05    0.000000e+00   -6.259229e+00    7.610976e+00   -2.683360e-02
   1.807130e-04    2.999221e+06    1.881885e+00    2.999219e+06    0.000000e+00    9.952284e+04    0.000000e+00   -7.368125e+00    7.610932e+00   -2.683283e-02
   1.817855e-04    2.972695e+06    1.366454e+00    2.972693e+06    0.000000e+00    9.893518e+04    0.000000e+00   -5.966389e+00    7.610888e+00   -2.683206e-02
   1.828644e-04    2.946402e+06   -5.472382e-02    2.946402e+06    0.000000e+00    9.835099e+04    0.000000e+00    3.685883e-01    7.610843e+00   -2.683129e-02
   1.839497e-04    2.920345e+06    1.310862e+00    2.920344e+06    0.000000e+00    9.777024e+04    0.000000e+00   -5.805682e+00    7.610799e+00   -2.683051e-02
   1.850414e-04    2.894518e+06    1.807157e+00    2.894516e+06    0.000000e+00    9.719292e+04    0.000000e+00   -7.173559e+00    7.610754e+00   -2.682972e-02
   1.861396e-04    2.868917e+06    1.409941e+00    2.868916e+06    0.000000e+00    9.661900e+04    0.000000e+00   -6.090751e+00    7.610708e+00   -2.682893e-02
   1.872443e-04    2.843542e+06    1.325881e-01    2.843542e+06    0.000000e+00    9.604847e+04    0.000000e+00   -1.317886e+00    7.610663e+00   -2.682814e-02
   1.883556e-04    2.818394e+06    1.146385e+00    2.818393e+06    0.000000e+00    9.548131e+04    0.000000e+00   -5.315540e+00    7.610617e+00   -2.682734e-02
   1.894735e-04    2.793468e+06    1.725033e+00    2.793466e+06    0.000000e+00    9.491749e+04    0.000000e+00   -6.957054e+00    7.610571e+00   -2.682654e-02
   1.905980e-04    2.768761e+06    1.431182e+00    2.768759e+06    0.000000e+00    9.435700e+04    0.000000e+00   -6.151284e+00    7.610524e+00   -2.682573e-02
   1.917292e-04    2.744271e+06    2.989638e-01    2.744271e+06    0.000000e+00    9.379982e+04    0.000000e+00   -2.213234e+00    7.610478e+00   -2.682492e-02
   1.928671e-04    2.720000e+06    9.858030e-01    2.719999e+06    0.000000e+00    9.324592e+04    0.000000e+00   -4.813860e+00    7.610431e+00   -2.682410e-02
   1.940117e-04    2.695944e+06    1.633447e+00    2.695942e+06    0.000000e+00    9.269529e+04    0.000000e+00   -6.711171e+00    7.610383e+00   -2.682328e-02
   1.951632e-04    2.672099e+06    1.443190e+00    2.672097e+06    0.000000e+00    9.214791e+04    0.000000e+00   -6.185190e+00    7.610336e+00   -2.682245e-02
   1.963215e-04    2.648464e+06    4.322217e-01    2.648463e+06    0.000000e+00    9.160376e+04    0.000000e+00   -2.809256e+00    7.610288e+00   -2.682162e-02
   1.974866e-04    2.625039e+06    8.271511e-01    2.625038e+06    0.000000e+00    9.106283e+04    0.000000e+00   -4.290470e+00    7.610240e+00   -2.682078e-02
   1.986587e-04    2.601822e+06    1.541183e+00    2.601821e+06    0.000000e+00    9.052508e+04    0.000000e+00   -6.458725e+00    7.610192e+00   -2.681994e-02
   1.998377e-04    2.578809e+06    1.442267e+00    2.578808e+06    0.000000e+00    8.999050e+04    0.000000e+00   -6.182595e+00    7.610143e+00   -2.681909e-02
   2.010238e-04    2.555999e+06    5.514904e-01    2.555999e+06    0.000000e+00    8.945908e+04    0.000000e+00   -3.291905e+00    7.610094e+00   -2.681824e-02
   2.022168e-04    2.533392e+06    6.651866e-01    2.533391e+06    0.000000e+00    8.893080e+04    0.000000e+00   -3.720268e+00    7.610045e+00   -2.681738e-02
   2.034170e-04    2.510985e+06    1.440972e+00    2.510984e+06    0.000000e+00    8.840563e+04    0.000000e+00   -6.178950e+00    7.609995e+00   -2.681652e-02
   2.046242e-04    2.488775e+06    1.429263e+00    2.488774e+06    0.000000e+00    8.788356e+04    0.000000e+00   -6.145840e+00    7.609945e+00   -2.681565e-02
