# All units in Hartree [AU] if not specified
# Convergence: Err(φ)=4.154e-11, Err(n_e)=9.666e-11, Err(IET)=2.520e+03, Q_net=6.724e-07
# {"name":"Ar", "Z":18, "Zstar":0.3519432982318662, "A":39.948,  "μ[AU]": 3.4913186833e-04, "Te[AU]": 3.246e-03, "Ti[AU]": 3.246e-03, "rs[AU]": 1.372e+01 }
   r[AU]           n[AU]           nf[AU]          nb[AU]          n_ion[AU]       φtot[AU]        δVxc/δρ[Au]     U_ei[AU]        U_ii[AU]        g_ii            
   1.000000e-04    7.290096e+06    2.940210e+00    7.290093e+06    0.000000e+00    1.799172e+05    0.000000e+00   -9.880950e+00    5.134889e+00   -9.238514e-15
   1.005935e-04    7.225647e+06    4.905293e+00    7.225642e+06    0.000000e+00    1.788552e+05    0.000000e+00   -1.387490e+01    5.134873e+00   -9.238367e-15
   1.011905e-04    7.161767e+06    5.590059e+00    7.161761e+06    0.000000e+00    1.777995e+05    0.000000e+00   -1.513202e+01    5.134857e+00   -9.238219e-15
   1.017911e-04    7.098450e+06    5.075056e+00    7.098444e+06    0.000000e+00    1.767500e+05    0.000000e+00   -1.419165e+01    5.134841e+00   -9.238071e-15
   1.023952e-04    7.035691e+06    3.375780e+00    7.035687e+06    0.000000e+00    1.757067e+05    0.000000e+00   -1.082830e+01    5.134824e+00   -9.237921e-15
   1.030029e-04    6.973486e+06    6.911306e-01    6.973485e+06    0.000000e+00    1.746696e+05    0.000000e+00   -3.799995e+00    5.134807e+00   -9.237771e-15
   1.036142e-04    6.911836e+06    3.406086e+00    6.911833e+06    0.000000e+00    1.736385e+05    0.000000e+00   -1.089248e+01    5.134791e+00   -9.237620e-15
   1.042292e-04    6.850730e+06    4.935499e+00    6.850725e+06    0.000000e+00    1.726136e+05    0.000000e+00   -1.393114e+01    5.134774e+00   -9.237468e-15
   1.048478e-04    6.790163e+06    5.299750e+00    6.790157e+06    0.000000e+00    1.715947e+05    0.000000e+00   -1.460616e+01    5.134757e+00   -9.237315e-15
   1.054700e-04    6.730129e+06    4.510411e+00    6.730125e+06    0.000000e+00    1.705818e+05    0.000000e+00   -1.312299e+01    5.134740e+00   -9.237161e-15
   1.060960e-04    6.670626e+06    2.589812e+00    6.670623e+06    0.000000e+00    1.695749e+05    0.000000e+00   -9.084175e+00    5.134723e+00   -9.237006e-15
   1.067257e-04    6.611649e+06    1.450111e+00    6.611647e+06    0.000000e+00    1.685739e+05    0.000000e+00   -6.190258e+00    5.134706e+00   -9.236851e-15
   1.073591e-04    6.553197e+06    3.757844e+00    6.553193e+06    0.000000e+00    1.675789e+05    0.000000e+00   -1.162632e+01    5.134689e+00   -9.236694e-15
   1.079962e-04    6.495260e+06    4.895701e+00    6.495255e+06    0.000000e+00    1.665897e+05    0.000000e+00   -1.385699e+01    5.134671e+00   -9.236537e-15
   1.086372e-04    6.437834e+06    4.931498e+00    6.437829e+06    0.000000e+00    1.656063e+05    0.000000e+00   -1.392366e+01    5.134654e+00   -9.236378e-15
   1.092819e-04    6.380915e+06    3.897774e+00    6.380911e+06    0.000000e+00    1.646288e+05    0.000000e+00   -1.191186e+01    5.134636e+00   -9.236219e-15
   1.099305e-04    6.324497e+06    1.797587e+00    6.324496e+06    0.000000e+00    1.636570e+05    0.000000e+00   -7.134262e+00    5.134618e+00   -9.236059e-15
   1.105830e-04    6.268581e+06    2.072380e+00    6.268579e+06    0.000000e+00    1.626910e+05    0.000000e+00   -7.837845e+00    5.134600e+00   -9.235897e-15
   1.112393e-04    6.213160e+06    3.959143e+00    6.213156e+06    0.000000e+00    1.617306e+05    0.000000e+00   -1.203549e+01    5.134583e+00   -9.235735e-15
   1.118995e-04    6.158229e+06    4.774207e+00    6.158224e+06    0.000000e+00    1.607759e+05    0.000000e+00   -1.362737e+01    5.134565e+00   -9.235572e-15
   1.125636e-04    6.103781e+06    4.520690e+00    6.103777e+06    0.000000e+00    1.598269e+05    0.000000e+00   -1.314297e+01    5.134546e+00   -9.235408e-15
   1.132316e-04    6.049814e+06    3.258460e+00    6.049811e+06    0.000000e+00    1.588834e+05    0.000000e+00   -1.057746e+01    5.134528e+00   -9.235242e-15
   1.139037e-04    5.996323e+06    1.017904e+00    5.996322e+06    0.000000e+00    1.579455e+05    0.000000e+00   -4.901693e+00    5.134510e+00   -9.235076e-15
   1.145797e-04    5.943309e+06    2.571078e+00    5.943306e+06    0.000000e+00    1.570132e+05    0.000000e+00   -9.040300e+00    5.134491e+00   -9.234909e-15
   1.152597e-04    5.890763e+06    4.066519e+00    5.890759e+06    0.000000e+00    1.560863e+05    0.000000e+00   -1.225133e+01    5.134473e+00   -9.234741e-15
   1.159437e-04    5.838680e+06    4.569619e+00    5.838675e+06    0.000000e+00    1.551649e+05    0.000000e+00   -1.323748e+01    5.134454e+00   -9.234572e-15
   1.166319e-04    5.787057e+06    4.077612e+00    5.787053e+06    0.000000e+00    1.542490e+05    0.000000e+00   -1.227334e+01    5.134435e+00   -9.234402e-15
   1.173241e-04    5.735889e+06    2.607351e+00    5.735886e+06    0.000000e+00    1.533384e+05    0.000000e+00   -9.124963e+00    5.134416e+00   -9.234231e-15
   1.180204e-04    5.685173e+06    7.643428e-01    5.685172e+06    0.000000e+00    1.524333e+05    0.000000e+00   -4.059654e+00    5.134397e+00   -9.234059e-15
   1.187208e-04    5.634909e+06    2.933657e+00    5.634906e+06    0.000000e+00    1.515334e+05    0.000000e+00   -9.866297e+00    5.134378e+00   -9.233886e-15
   1.194254e-04    5.585088e+06    4.092977e+00    5.585084e+06    0.000000e+00    1.506389e+05    0.000000e+00   -1.230373e+01    5.134359e+00   -9.233711e-15
   1.201342e-04    5.535707e+06    4.304068e+00    5.535703e+06    0.000000e+00    1.497497e+05    0.000000e+00   -1.272182e+01    5.134340e+00   -9.233536e-15
   1.208472e-04    5.486761e+06    3.577317e+00    5.486758e+06    0.000000e+00    1.488657e+05    0.000000e+00   -1.125291e+01    5.134320e+00   -9.233360e-15
   1.215644e-04    5.438247e+06    1.959684e+00    5.438245e+06    0.000000e+00    1.479869e+05    0.000000e+00   -7.553403e+00    5.134301e+00   -9.233183e-15
   1.222859e-04    5.390163e+06    1.379961e+00    5.390162e+06    0.000000e+00    1.471133e+05    0.000000e+00   -5.990675e+00    5.134281e+00   -9.233004e-15
   1.230117e-04    5.342506e+06    3.178853e+00    5.342503e+06    0.000000e+00    1.462448e+05    0.000000e+00   -1.040520e+01    5.134261e+00   -9.232825e-15
   1.237417e-04    5.295270e+06    4.038031e+00    5.295266e+06    0.000000e+00    1.453815e+05    0.000000e+00   -1.219453e+01    5.134241e+00   -9.232645e-15
   1.244761e-04    5.248450e+06    3.992740e+00    5.248446e+06    0.000000e+00    1.445233e+05    0.000000e+00   -1.210339e+01    5.134221e+00   -9.232463e-15
   1.252149e-04    5.202043e+06    3.060371e+00    5.202040e+06    0.000000e+00    1.436701e+05    0.000000e+00   -1.014675e+01    5.134201e+00   -9.232281e-15
   1.259580e-04    5.156045e+06    1.288760e+00    5.156044e+06    0.000000e+00    1.428220e+05    0.000000e+00   -5.726451e+00    5.134181e+00   -9.232097e-15
   1.267056e-04    5.110457e+06    1.874521e+00    5.110455e+06    0.000000e+00    1.419789e+05    0.000000e+00   -7.334476e+00    5.134160e+00   -9.231912e-15
   1.274576e-04    5.065272e+06    3.331881e+00    5.065268e+06    0.000000e+00    1.411407e+05    0.000000e+00   -1.073491e+01    5.134140e+00   -9.231726e-15
   1.282140e-04    5.020485e+06    3.907907e+00    5.020481e+06    0.000000e+00    1.403075e+05    0.000000e+00   -1.193241e+01    5.134119e+00   -9.231539e-15
   1.289750e-04    4.976094e+06    3.639752e+00    4.976090e+06    0.000000e+00    1.394792e+05    0.000000e+00   -1.138267e+01    5.134098e+00   -9.231351e-15
   1.297404e-04    4.932094e+06    2.523769e+00    4.932091e+06    0.000000e+00    1.386558e+05    0.000000e+00   -8.930166e+00    5.134077e+00   -9.231162e-15
   1.305104e-04    4.888482e+06    6.101801e-01    4.888482e+06    0.000000e+00    1.378373e+05    0.000000e+00   -3.501871e+00    5.134056e+00   -9.230972e-15
   1.312850e-04    4.845259e+06    2.250597e+00    4.845257e+06    0.000000e+00    1.370236e+05    0.000000e+00   -8.277763e+00    5.134035e+00   -9.230780e-15
   1.320642e-04    4.802418e+06    3.401930e+00    4.802415e+06    0.000000e+00    1.362146e+05    0.000000e+00   -1.088359e+01    5.134014e+00   -9.230588e-15
   1.328480e-04    4.759955e+06    3.723366e+00    4.759951e+06    0.000000e+00    1.354105e+05    0.000000e+00   -1.155511e+01    5.133992e+00   -9.230394e-15
   1.336364e-04    4.717866e+06    3.244613e+00    4.717862e+06    0.000000e+00    1.346111e+05    0.000000e+00   -1.054771e+01    5.133971e+00   -9.230199e-15
   1.344295e-04    4.676148e+06    1.975980e+00    4.676146e+06    0.000000e+00    1.338164e+05    0.000000e+00   -7.594925e+00    5.133949e+00   -9.230003e-15
   1.352274e-04    4.634799e+06    8.454418e-01    4.634798e+06    0.000000e+00    1.330264e+05    0.000000e+00   -4.337988e+00    5.133927e+00   -9.229806e-15
   1.360299e-04    4.593819e+06    2.522597e+00    4.593816e+06    0.000000e+00    1.322411e+05    0.000000e+00   -8.927415e+00    5.133906e+00   -9.229608e-15
   1.368372e-04    4.553200e+06    3.397766e+00    4.553196e+06    0.000000e+00    1.314604e+05    0.000000e+00   -1.087467e+01    5.133884e+00   -9.229408e-15
   1.376494e-04    4.512939e+06    3.491377e+00    4.512935e+06    0.000000e+00    1.306843e+05    0.000000e+00   -1.107263e+01    5.133861e+00   -9.229208e-15
   1.384663e-04    4.473033e+06    2.818555e+00    4.473030e+06    0.000000e+00    1.299128e+05    0.000000e+00   -9.607655e+00    5.133839e+00   -9.229006e-15
   1.392881e-04    4.433479e+06    1.411884e+00    4.433478e+06    0.000000e+00    1.291458e+05    0.000000e+00   -6.081949e+00    5.133817e+00   -9.228803e-15
   1.401148e-04    4.394276e+06    1.326285e+00    4.394275e+06    0.000000e+00    1.283834e+05    0.000000e+00   -5.835998e+00    5.133794e+00   -9.228599e-15
   1.409463e-04    4.355421e+06    2.706059e+00    4.355418e+06    0.000000e+00    1.276254e+05    0.000000e+00   -9.352272e+00    5.133771e+00   -9.228393e-15
   1.417828e-04    4.316909e+06    3.325358e+00    4.316906e+06    0.000000e+00    1.268720e+05    0.000000e+00   -1.072093e+01    5.133748e+00   -9.228186e-15
   1.426243e-04    4.278736e+06    3.217285e+00    4.278733e+06    0.000000e+00    1.261230e+05    0.000000e+00   -1.048860e+01    5.133725e+00   -9.227979e-15
   1.434708e-04    4.240900e+06    2.380345e+00    4.240898e+06    0.000000e+00    1.253784e+05    0.000000e+00   -8.590801e+00    5.133702e+00   -9.227769e-15
   1.443223e-04    4.203398e+06    8.434356e-01    4.203397e+06    0.000000e+00    1.246381e+05    0.000000e+00   -4.331184e+00    5.133679e+00   -9.227559e-15
   1.451788e-04    4.166230e+06    1.702368e+00    4.166228e+06    0.000000e+00    1.239023e+05    0.000000e+00   -6.882024e+00    5.133656e+00   -9.227347e-15
   1.460404e-04    4.129390e+06    2.814572e+00    4.129388e+06    0.000000e+00    1.231708e+05    0.000000e+00   -9.598720e+00    5.133632e+00   -9.227134e-15
   1.469072e-04    4.092876e+06    3.197935e+00    4.092873e+06    0.000000e+00    1.224436e+05    0.000000e+00   -1.044645e+01    5.133609e+00   -9.226920e-15
   1.477791e-04    4.056683e+06    2.896595e+00    4.056680e+06    0.000000e+00    1.217207e+05    0.000000e+00   -9.783304e+00    5.133585e+00   -9.226705e-15
   1.486561e-04    4.020810e+06    1.917639e+00    4.020808e+06    0.000000e+00    1.210021e+05    0.000000e+00   -7.445844e+00    5.133561e+00   -9.226488e-15
   1.495384e-04    3.985253e+06    4.332515e-01    3.985253e+06    0.000000e+00    1.202877e+05    0.000000e+00   -2.799188e+00    5.133537e+00   -9.226270e-15
   1.504259e-04    3.950014e+06    1.979992e+00    3.950012e+06    0.000000e+00    1.195775e+05    0.000000e+00   -7.605095e+00    5.133512e+00   -9.226051e-15
   1.513187e-04    3.915085e+06    2.851094e+00    3.915082e+06    0.000000e+00    1.188715e+05    0.000000e+00   -9.681475e+00    5.133488e+00   -9.225830e-15
   1.522167e-04    3.880464e+06    3.033628e+00    3.880461e+06    0.000000e+00    1.181697e+05    0.000000e+00   -1.008791e+01    5.133464e+00   -9.225609e-15
   1.531201e-04    3.846149e+06    2.554065e+00    3.846146e+06    0.000000e+00    1.174720e+05    0.000000e+00   -9.000799e+00    5.133439e+00   -9.225385e-15
   1.540289e-04    3.812136e+06    1.438313e+00    3.812135e+06    0.000000e+00    1.167785e+05    0.000000e+00   -6.156971e+00    5.133414e+00   -9.225161e-15
   1.549430e-04    3.778425e+06    9.033992e-01    3.778424e+06    0.000000e+00    1.160890e+05    0.000000e+00   -4.531402e+00    5.133389e+00   -9.224935e-15
   1.558626e-04    3.745013e+06    2.181794e+00    3.745011e+06    0.000000e+00    1.154036e+05    0.000000e+00   -8.109394e+00    5.133364e+00   -9.224708e-15
   1.567877e-04    3.711896e+06    2.814418e+00    3.711894e+06    0.000000e+00    1.147223e+05    0.000000e+00   -9.598377e+00    5.133339e+00   -9.224479e-15
   1.577182e-04    3.679072e+06    2.817163e+00    3.679069e+06    0.000000e+00    1.140449e+05    0.000000e+00   -9.604518e+00    5.133313e+00   -9.224250e-15
   1.586542e-04    3.646536e+06    2.193109e+00    3.646534e+06    0.000000e+00    1.133716e+05    0.000000e+00   -8.136997e+00    5.133288e+00   -9.224018e-15
   1.595958e-04    3.614288e+06    9.567364e-01    3.614287e+06    0.000000e+00    1.127022e+05    0.000000e+00   -4.705701e+00    5.133262e+00   -9.223786e-15
   1.605430e-04    3.582326e+06    1.271676e+00    3.582325e+06    0.000000e+00    1.120368e+05    0.000000e+00   -5.676404e+00    5.133236e+00   -9.223552e-15
   1.614958e-04    3.550648e+06    2.317965e+00    3.550645e+06    0.000000e+00    1.113753e+05    0.000000e+00   -8.441009e+00    5.133210e+00   -9.223316e-15
   1.624543e-04    3.519248e+06    2.735950e+00    3.519246e+06    0.000000e+00    1.107177e+05    0.000000e+00   -9.420253e+00    5.133184e+00   -9.223080e-15
   1.634185e-04    3.488126e+06    2.562395e+00    3.488124e+06    0.000000e+00    1.100640e+05    0.000000e+00   -9.020072e+00    5.133158e+00   -9.222842e-15
   1.643883e-04    3.457279e+06    1.808170e+00    3.457277e+06    0.000000e+00    1.094141e+05    0.000000e+00   -7.161920e+00    5.133131e+00   -9.222602e-15
   1.653640e-04    3.426703e+06    4.804582e-01    3.426702e+06    0.000000e+00    1.087681e+05    0.000000e+00   -2.994761e+00    5.133104e+00   -9.222361e-15
   1.663454e-04    3.396400e+06    1.546759e+00    3.396398e+06    0.000000e+00    1.081259e+05    0.000000e+00   -6.459702e+00    5.133078e+00   -9.222119e-15
   1.673327e-04    3.366365e+06    2.373657e+00    3.366362e+06    0.000000e+00    1.074875e+05    0.000000e+00   -8.574825e+00    5.133051e+00   -9.221875e-15
   1.683258e-04    3.336594e+06    2.618762e+00    3.336592e+06    0.000000e+00    1.068528e+05    0.000000e+00   -9.151354e+00    5.133024e+00   -9.221630e-15
   1.693248e-04    3.307086e+06    2.284652e+00    3.307084e+06    0.000000e+00    1.062219e+05    0.000000e+00   -8.360492e+00    5.132996e+00   -9.221383e-15
   1.703297e-04    3.277839e+06    1.403943e+00    3.277837e+06    0.000000e+00    1.055947e+05    0.000000e+00   -6.059438e+00    5.132969e+00   -9.221135e-15
   1.713406e-04    3.248850e+06    5.777972e-01    3.248849e+06    0.000000e+00    1.049713e+05    0.000000e+00   -3.378910e+00    5.132941e+00   -9.220885e-15
   1.723575e-04    3.220119e+06    1.762037e+00    3.220117e+06    0.000000e+00    1.043514e+05    0.000000e+00   -7.040423e+00    5.132914e+00   -9.220634e-15
   1.733804e-04    3.191642e+06    2.376476e+00    3.191639e+06    0.000000e+00    1.037353e+05    0.000000e+00   -8.581565e+00    5.132886e+00   -9.220381e-15
   1.744094e-04    3.163415e+06    2.454985e+00    3.163413e+06    0.000000e+00    1.031228e+05    0.000000e+00   -8.768235e+00    5.132857e+00   -9.220127e-15
   1.754445e-04    3.135438e+06    1.988733e+00    3.135436e+06    0.000000e+00    1.025139e+05    0.000000e+00   -7.627183e+00    5.132829e+00   -9.219872e-15
   1.764858e-04    3.107708e+06    9.954193e-01    3.107707e+06    0.000000e+00    1.019086e+05    0.000000e+00   -4.830163e+00    5.132801e+00   -9.219614e-15
   1.775332e-04    3.080223e+06    9.250563e-01    3.080222e+06    0.000000e+00    1.013068e+05    0.000000e+00   -4.602512e+00    5.132772e+00   -9.219356e-15
   1.785869e-04    3.052983e+06    1.903785e+00    3.052981e+06    0.000000e+00    1.007086e+05    0.000000e+00   -7.410233e+00    5.132743e+00   -9.219096e-15
   1.796468e-04    3.025983e+06    2.332639e+00    3.025980e+06    0.000000e+00    1.001140e+05    0.000000e+00   -8.476109e+00    5.132714e+00   -9.218834e-15
   1.807130e-04    2.999221e+06    2.250627e+00    2.999218e+06    0.000000e+00    9.952283e+04    0.000000e+00   -8.277835e+00    5.132685e+00   -9.218571e-15
   1.817855e-04    2.972695e+06    1.665576e+00    2.972693e+06    0.000000e+00    9.893517e+04    0.000000e+00   -6.783265e+00    5.132656e+00   -9.218306e-15
   1.828644e-04    2.946403e+06    5.888269e-01    2.946402e+06    0.000000e+00    9.835098e+04    0.000000e+00   -3.421130e+00    5.132627e+00   -9.218039e-15
   1.839497e-04    2.920345e+06    1.202528e+00    2.920344e+06    0.000000e+00    9.777023e+04    0.000000e+00   -5.470873e+00    5.132597e+00   -9.217771e-15
   1.850414e-04    2.894517e+06    1.981002e+00    2.894515e+06    0.000000e+00    9.719291e+04    0.000000e+00   -7.607653e+00    5.132567e+00   -9.217502e-15
   1.861396e-04    2.868918e+06    2.251663e+00    2.868915e+06    0.000000e+00    9.661899e+04    0.000000e+00   -8.280341e+00    5.132537e+00   -9.217231e-15
   1.872443e-04    2.843544e+06    2.027895e+00    2.843542e+06    0.000000e+00    9.604846e+04    0.000000e+00   -7.726352e+00    5.132507e+00   -9.216958e-15
   1.883556e-04    2.818394e+06    1.326524e+00    2.818393e+06    0.000000e+00    9.548130e+04    0.000000e+00   -5.836685e+00    5.132477e+00   -9.216683e-15
   1.894735e-04    2.793466e+06    3.384338e-01    2.793466e+06    0.000000e+00    9.491748e+04    0.000000e+00   -2.383177e+00    5.132446e+00   -9.216407e-15
   1.905980e-04    2.768760e+06    1.412026e+00    2.768759e+06    0.000000e+00    9.435699e+04    0.000000e+00   -6.082350e+00    5.132415e+00   -9.216130e-15
   1.917292e-04    2.744273e+06    2.003381e+00    2.744271e+06    0.000000e+00    9.379981e+04    0.000000e+00   -7.664092e+00    5.132384e+00   -9.215851e-15
   1.928671e-04    2.720001e+06    2.125365e+00    2.719999e+06    0.000000e+00    9.324591e+04    0.000000e+00   -7.969793e+00    5.132353e+00   -9.215570e-15
   1.940117e-04    2.695943e+06    1.780931e+00    2.695942e+06    0.000000e+00    9.269529e+04    0.000000e+00   -7.090404e+00    5.132322e+00   -9.215287e-15
   1.951632e-04    2.672098e+06    9.794032e-01    2.672097e+06    0.000000e+00    9.214791e+04    0.000000e+00   -4.778633e+00    5.132291e+00   -9.215003e-15
   1.963215e-04    2.648464e+06    6.716456e-01    2.648463e+06    0.000000e+00    9.160376e+04    0.000000e+00   -3.729303e+00    5.132259e+00   -9.214717e-15
   1.974866e-04    2.625040e+06    1.563880e+00    2.625038e+06    0.000000e+00    9.106282e+04    0.000000e+00   -6.506666e+00    5.132227e+00   -9.214429e-15
   1.986587e-04    2.601822e+06    1.987047e+00    2.601820e+06    0.000000e+00    9.052507e+04    0.000000e+00   -7.622929e+00    5.132195e+00   -9.214140e-15
   1.998377e-04    2.578810e+06    1.966956e+00    2.578808e+06    0.000000e+00    8.999050e+04    0.000000e+00   -7.571974e+00    5.132163e+00   -9.213849e-15
   2.010238e-04    2.556000e+06    1.511234e+00    2.555998e+06    0.000000e+00    8.945907e+04    0.000000e+00   -6.361082e+00    5.132131e+00   -9.213556e-15
   2.022168e-04    2.533392e+06    6.312483e-01    2.533391e+06    0.000000e+00    8.893079e+04    0.000000e+00   -3.580617e+00    5.132098e+00   -9.213262e-15
   2.034170e-04    2.510984e+06    9.341657e-01    2.510983e+06    0.000000e+00    8.840562e+04    0.000000e+00   -4.632377e+00    5.132065e+00   -9.212965e-15
   2.046242e-04    2.488775e+06    1.650698e+00    2.488774e+06    0.000000e+00    8.788355e+04    0.000000e+00   -6.743249e+00    5.132032e+00   -9.212667e-15
