# All units in Hartree [AU] if not specified
# Convergence: Err(φ)=3.950e-11, Err(n_e)=9.625e-11, Err(IET)=2.042e+01, Q_net=6.275e-07
# {"name":"Ar", "Z":18, "Zstar":0.3354215031884564, "A":39.948,  "μ[AU]": 2.0748800595e-03, "Te[AU]": 1.813e-03, "Ti[AU]": 1.813e-03, "rs[AU]": 1.372e+01 }
   r[AU]           n[AU]           nf[AU]          nb[AU]          n_ion[AU]       φtot[AU]        δVxc/δρ[Au]     U_ei[AU]        U_ii[AU]        g_ii            
   1.000000e-04    7.290098e+06    4.957963e+00    7.290093e+06    0.000000e+00    1.799172e+05    0.000000e+00   -1.397276e+01    4.619913e+00    9.705910e-26
   1.005935e-04    7.225646e+06    3.350347e+00    7.225642e+06    0.000000e+00    1.788552e+05    0.000000e+00   -1.077332e+01    4.619899e+00    9.705755e-26
   1.011905e-04    7.161762e+06    1.082491e+00    7.161761e+06    0.000000e+00    1.777995e+05    0.000000e+00   -5.103481e+00    4.619884e+00    9.705600e-26
   1.017911e-04    7.098447e+06    2.748172e+00    7.098444e+06    0.000000e+00    1.767500e+05    0.000000e+00   -9.447452e+00    4.619870e+00    9.705444e-26
   1.023952e-04    7.035692e+06    4.433023e+00    7.035687e+06    0.000000e+00    1.757067e+05    0.000000e+00   -1.297249e+01    4.619855e+00    9.705288e-26
   1.030029e-04    6.973490e+06    5.417192e+00    6.973485e+06    0.000000e+00    1.746696e+05    0.000000e+00   -1.481892e+01    4.619840e+00    9.705130e-26
   1.036142e-04    6.911838e+06    5.718581e+00    6.911832e+06    0.000000e+00    1.736385e+05    0.000000e+00   -1.536160e+01    4.619825e+00    9.704971e-26
   1.042292e-04    6.850730e+06    5.351577e+00    6.850725e+06    0.000000e+00    1.726136e+05    0.000000e+00   -1.469986e+01    4.619810e+00    9.704811e-26
   1.048478e-04    6.790161e+06    4.333625e+00    6.790157e+06    0.000000e+00    1.715947e+05    0.000000e+00   -1.277829e+01    4.619795e+00    9.704650e-26
   1.054700e-04    6.730128e+06    2.687340e+00    6.730125e+06    0.000000e+00    1.705818e+05    0.000000e+00   -9.308457e+00    4.619780e+00    9.704489e-26
   1.060960e-04    6.670624e+06    9.384004e-01    6.670623e+06    0.000000e+00    1.695749e+05    0.000000e+00   -4.645146e+00    4.619765e+00    9.704326e-26
   1.067257e-04    6.611650e+06    3.017084e+00    6.611647e+06    0.000000e+00    1.685739e+05    0.000000e+00   -1.005038e+01    4.619750e+00    9.704163e-26
   1.073591e-04    6.553197e+06    4.435396e+00    6.553193e+06    0.000000e+00    1.675789e+05    0.000000e+00   -1.297709e+01    4.619734e+00    9.703998e-26
   1.079962e-04    6.495260e+06    5.191564e+00    6.495255e+06    0.000000e+00    1.665897e+05    0.000000e+00   -1.440649e+01    4.619719e+00    9.703833e-26
   1.086372e-04    6.437834e+06    5.316223e+00    6.437829e+06    0.000000e+00    1.656063e+05    0.000000e+00   -1.463544e+01    4.619703e+00    9.703666e-26
   1.092819e-04    6.380916e+06    4.823085e+00    6.380911e+06    0.000000e+00    1.646288e+05    0.000000e+00   -1.371937e+01    4.619688e+00    9.703499e-26
   1.099305e-04    6.324499e+06    3.725925e+00    6.324495e+06    0.000000e+00    1.636570e+05    0.000000e+00   -1.155945e+01    4.619672e+00    9.703330e-26
   1.105830e-04    6.268581e+06    2.045350e+00    6.268579e+06    0.000000e+00    1.626910e+05    0.000000e+00   -7.769172e+00    4.619656e+00    9.703161e-26
   1.112393e-04    6.213158e+06    1.404121e+00    6.213156e+06    0.000000e+00    1.617306e+05    0.000000e+00   -6.058929e+00    4.619640e+00    9.702990e-26
   1.118995e-04    6.158227e+06    3.194011e+00    6.158224e+06    0.000000e+00    1.607759e+05    0.000000e+00   -1.043707e+01    4.619624e+00    9.702819e-26
   1.125636e-04    6.103781e+06    4.364729e+00    6.103777e+06    0.000000e+00    1.598269e+05    0.000000e+00   -1.283926e+01    4.619608e+00    9.702647e-26
   1.132316e-04    6.049816e+06    4.932755e+00    6.049811e+06    0.000000e+00    1.588834e+05    0.000000e+00   -1.392523e+01    4.619592e+00    9.702473e-26
   1.139037e-04    5.996327e+06    4.908727e+00    5.996322e+06    0.000000e+00    1.579455e+05    0.000000e+00   -1.388012e+01    4.619575e+00    9.702299e-26
   1.145797e-04    5.943310e+06    4.308374e+00    5.943306e+06    0.000000e+00    1.570132e+05    0.000000e+00   -1.272917e+01    4.619559e+00    9.702123e-26
   1.152597e-04    5.890762e+06    3.153132e+00    5.890758e+06    0.000000e+00    1.560863e+05    0.000000e+00   -1.034855e+01    4.619542e+00    9.701946e-26
   1.159437e-04    5.838677e+06    1.445510e+00    5.838675e+06    0.000000e+00    1.551649e+05    0.000000e+00   -6.176309e+00    4.619526e+00    9.701769e-26
   1.166319e-04    5.787054e+06    1.789656e+00    5.787053e+06    0.000000e+00    1.542490e+05    0.000000e+00   -7.112466e+00    4.619509e+00    9.701590e-26
   1.173241e-04    5.735889e+06    3.314739e+00    5.735886e+06    0.000000e+00    1.533384e+05    0.000000e+00   -1.069724e+01    4.619492e+00    9.701410e-26
   1.180204e-04    5.685176e+06    4.267785e+00    5.685172e+06    0.000000e+00    1.524333e+05    0.000000e+00   -1.264961e+01    4.619475e+00    9.701229e-26
   1.187208e-04    5.634910e+06    4.655518e+00    5.634906e+06    0.000000e+00    1.515334e+05    0.000000e+00   -1.340093e+01    4.619458e+00    9.701048e-26
   1.194254e-04    5.585089e+06    4.494936e+00    5.585084e+06    0.000000e+00    1.506389e+05    0.000000e+00   -1.309208e+01    4.619441e+00    9.700865e-26
   1.201342e-04    5.535706e+06    3.805756e+00    5.535703e+06    0.000000e+00    1.497497e+05    0.000000e+00   -1.172345e+01    4.619424e+00    9.700681e-26
   1.208472e-04    5.486760e+06    2.600462e+00    5.486758e+06    0.000000e+00    1.488657e+05    0.000000e+00   -9.108010e+00    4.619406e+00    9.700495e-26
   1.215644e-04    5.438246e+06    8.808809e-01    5.438245e+06    0.000000e+00    1.479869e+05    0.000000e+00   -4.455752e+00    4.619389e+00    9.700309e-26
   1.222859e-04    5.390164e+06    2.090000e+00    5.390162e+06    0.000000e+00    1.471133e+05    0.000000e+00   -7.881136e+00    4.619372e+00    9.700122e-26
   1.230117e-04    5.342506e+06    3.363542e+00    5.342503e+06    0.000000e+00    1.462448e+05    0.000000e+00   -1.080131e+01    4.619354e+00    9.699933e-26
   1.237417e-04    5.295270e+06    4.128317e+00    5.295266e+06    0.000000e+00    1.453815e+05    0.000000e+00   -1.237373e+01    4.619336e+00    9.699744e-26
   1.244761e-04    5.248450e+06    4.361215e+00    5.248446e+06    0.000000e+00    1.445233e+05    0.000000e+00   -1.283235e+01    4.619318e+00    9.699553e-26
   1.252149e-04    5.202044e+06    4.084146e+00    5.202040e+06    0.000000e+00    1.436701e+05    0.000000e+00   -1.228517e+01    4.619300e+00    9.699361e-26
   1.259580e-04    5.156047e+06    3.314768e+00    5.156044e+06    0.000000e+00    1.428220e+05    0.000000e+00   -1.069730e+01    4.619282e+00    9.699168e-26
   1.267056e-04    5.110457e+06    2.068585e+00    5.110455e+06    0.000000e+00    1.419789e+05    0.000000e+00   -7.827411e+00    4.619264e+00    9.698974e-26
   1.274576e-04    5.065269e+06    7.099561e-01    5.065268e+06    0.000000e+00    1.411407e+05    0.000000e+00   -3.866666e+00    4.619246e+00    9.698779e-26
   1.282140e-04    5.020484e+06    2.296216e+00    5.020481e+06    0.000000e+00    1.403075e+05    0.000000e+00   -8.387608e+00    4.619227e+00    9.698583e-26
   1.289750e-04    4.976094e+06    3.377491e+00    4.976090e+06    0.000000e+00    1.394792e+05    0.000000e+00   -1.083077e+01    4.619209e+00    9.698385e-26
   1.297404e-04    4.932095e+06    3.958120e+00    4.932091e+06    0.000000e+00    1.386558e+05    0.000000e+00   -1.203231e+01    4.619190e+00    9.698186e-26
   1.305104e-04    4.888485e+06    4.052571e+00    4.888481e+06    0.000000e+00    1.378373e+05    0.000000e+00   -1.222248e+01    4.619172e+00    9.697986e-26
   1.312850e-04    4.845261e+06    3.680375e+00    4.845257e+06    0.000000e+00    1.370235e+05    0.000000e+00   -1.146590e+01    4.619153e+00    9.697785e-26
   1.320642e-04    4.802417e+06    2.849504e+00    4.802415e+06    0.000000e+00    1.362146e+05    0.000000e+00   -9.676947e+00    4.619134e+00    9.697583e-26
   1.328480e-04    4.759952e+06    1.571777e+00    4.759951e+06    0.000000e+00    1.354105e+05    0.000000e+00   -6.527587e+00    4.619115e+00    9.697380e-26
   1.336364e-04    4.717864e+06    1.105407e+00    4.717862e+06    0.000000e+00    1.346111e+05    0.000000e+00   -5.174207e+00    4.619096e+00    9.697175e-26
   1.344295e-04    4.676148e+06    2.460368e+00    4.676146e+06    0.000000e+00    1.338164e+05    0.000000e+00   -8.779890e+00    4.619076e+00    9.696969e-26
   1.352274e-04    4.634802e+06    3.343594e+00    4.634798e+06    0.000000e+00    1.330264e+05    0.000000e+00   -1.075895e+01    4.619057e+00    9.696762e-26
   1.360299e-04    4.593820e+06    3.767018e+00    4.593816e+06    0.000000e+00    1.322411e+05    0.000000e+00   -1.164430e+01    4.619037e+00    9.696553e-26
   1.368372e-04    4.553200e+06    3.739278e+00    4.553196e+06    0.000000e+00    1.314604e+05    0.000000e+00   -1.158712e+01    4.619018e+00    9.696344e-26
   1.376494e-04    4.512938e+06    3.278285e+00    4.512935e+06    0.000000e+00    1.306843e+05    0.000000e+00   -1.061870e+01    4.618998e+00    9.696133e-26
   1.384663e-04    4.473032e+06    2.392664e+00    4.473030e+06    0.000000e+00    1.299128e+05    0.000000e+00   -8.619037e+00    4.618978e+00    9.695921e-26
   1.392881e-04    4.433479e+06    1.090360e+00    4.433478e+06    0.000000e+00    1.291458e+05    0.000000e+00   -5.127920e+00    4.618958e+00    9.695708e-26
   1.401148e-04    4.394276e+06    1.397807e+00    4.394275e+06    0.000000e+00    1.283834e+05    0.000000e+00   -6.040976e+00    4.618938e+00    9.695493e-26
   1.409463e-04    4.355421e+06    2.554710e+00    4.355418e+06    0.000000e+00    1.276254e+05    0.000000e+00   -9.001174e+00    4.618918e+00    9.695277e-26
   1.417828e-04    4.316909e+06    3.268249e+00    4.316906e+06    0.000000e+00    1.268720e+05    0.000000e+00   -1.059731e+01    4.618898e+00    9.695060e-26
   1.426243e-04    4.278737e+06    3.551784e+00    4.278733e+06    0.000000e+00    1.261230e+05    0.000000e+00   -1.119868e+01    4.618877e+00    9.694842e-26
   1.434708e-04    4.240901e+06    3.423151e+00    4.240898e+06    0.000000e+00    1.253784e+05    0.000000e+00   -1.092799e+01    4.618857e+00    9.694622e-26
   1.443223e-04    4.203400e+06    2.888866e+00    4.203397e+06    0.000000e+00    1.246381e+05    0.000000e+00   -9.765007e+00    4.618836e+00    9.694401e-26
   1.451788e-04    4.166230e+06    1.959434e+00    4.166228e+06    0.000000e+00    1.239023e+05    0.000000e+00   -7.551824e+00    4.618815e+00    9.694179e-26
   1.460404e-04    4.129388e+06    6.508560e-01    4.129387e+06    0.000000e+00    1.231708e+05    0.000000e+00   -3.652136e+00    4.618794e+00    9.693955e-26
   1.469072e-04    4.092874e+06    1.642927e+00    4.092872e+06    0.000000e+00    1.224436e+05    0.000000e+00   -6.721325e+00    4.618773e+00    9.693730e-26
   1.477791e-04    4.056683e+06    2.599260e+00    4.056680e+06    0.000000e+00    1.217207e+05    0.000000e+00   -9.105222e+00    4.618752e+00    9.693504e-26
   1.486561e-04    4.020811e+06    3.166625e+00    4.020808e+06    0.000000e+00    1.210021e+05    0.000000e+00   -1.037772e+01    4.618731e+00    9.693276e-26
   1.495384e-04    3.985256e+06    3.323333e+00    3.985252e+06    0.000000e+00    1.202877e+05    0.000000e+00   -1.071567e+01    4.618709e+00    9.693047e-26
   1.504259e-04    3.950015e+06    3.102991e+00    3.950011e+06    0.000000e+00    1.195775e+05    0.000000e+00   -1.023905e+01    4.618687e+00    9.692817e-26
   1.513187e-04    3.915084e+06    2.503426e+00    3.915082e+06    0.000000e+00    1.188715e+05    0.000000e+00   -8.881375e+00    4.618666e+00    9.692585e-26
   1.522167e-04    3.880463e+06    1.537622e+00    3.880461e+06    0.000000e+00    1.181697e+05    0.000000e+00   -6.433540e+00    4.618644e+00    9.692352e-26
   1.531201e-04    3.846147e+06    6.208315e-01    3.846146e+06    0.000000e+00    1.174720e+05    0.000000e+00   -3.540924e+00    4.618622e+00    9.692117e-26
   1.540289e-04    3.812137e+06    1.812791e+00    3.812135e+06    0.000000e+00    1.167785e+05    0.000000e+00   -7.172863e+00    4.618600e+00    9.691881e-26
   1.549430e-04    3.778427e+06    2.612376e+00    3.778424e+06    0.000000e+00    1.160890e+05    0.000000e+00   -9.135579e+00    4.618578e+00    9.691644e-26
   1.558626e-04    3.745014e+06    3.034588e+00    3.745011e+06    0.000000e+00    1.154036e+05    0.000000e+00   -1.008908e+01    4.618555e+00    9.691406e-26
   1.567877e-04    3.711897e+06    3.086476e+00    3.711893e+06    0.000000e+00    1.147223e+05    0.000000e+00   -1.020260e+01    4.618533e+00    9.691166e-26
   1.577182e-04    3.679071e+06    2.786501e+00    3.679069e+06    0.000000e+00    1.140449e+05    0.000000e+00   -9.534530e+00    4.618510e+00    9.690924e-26
   1.586542e-04    3.646536e+06    2.130177e+00    3.646534e+06    0.000000e+00    1.133716e+05    0.000000e+00   -7.980802e+00    4.618487e+00    9.690681e-26
   1.595958e-04    3.614288e+06    1.142485e+00    3.614287e+06    0.000000e+00    1.127022e+05    0.000000e+00   -5.288043e+00    4.618465e+00    9.690437e-26
   1.605430e-04    3.582326e+06    9.263549e-01    3.582325e+06    0.000000e+00    1.120368e+05    0.000000e+00   -4.605848e+00    4.618442e+00    9.690191e-26
   1.614958e-04    3.550647e+06    1.932108e+00    3.550645e+06    0.000000e+00    1.113753e+05    0.000000e+00   -7.481657e+00    4.618418e+00    9.689944e-26
   1.624543e-04    3.519248e+06    2.583510e+00    3.519246e+06    0.000000e+00    1.107177e+05    0.000000e+00   -9.068564e+00    4.618395e+00    9.689695e-26
   1.634185e-04    3.488126e+06    2.882453e+00    3.488124e+06    0.000000e+00    1.100640e+05    0.000000e+00   -9.750743e+00    4.618372e+00    9.689445e-26
   1.643883e-04    3.457279e+06    2.844313e+00    3.457277e+06    0.000000e+00    1.094141e+05    0.000000e+00   -9.665245e+00    4.618348e+00    9.689193e-26
   1.653640e-04    3.426705e+06    2.471214e+00    3.426702e+06    0.000000e+00    1.087681e+05    0.000000e+00   -8.805342e+00    4.618324e+00    9.688940e-26
   1.663454e-04    3.396400e+06    1.778711e+00    3.396398e+06    0.000000e+00    1.081259e+05    0.000000e+00   -7.083619e+00    4.618301e+00    9.688685e-26
   1.673327e-04    3.366363e+06    7.654583e-01    3.366362e+06    0.000000e+00    1.074875e+05    0.000000e+00   -4.062658e+00    4.618277e+00    9.688429e-26
   1.683258e-04    3.336593e+06    1.167165e+00    3.336592e+06    0.000000e+00    1.068528e+05    0.000000e+00   -5.363209e+00    4.618252e+00    9.688171e-26
   1.693248e-04    3.307086e+06    2.015919e+00    3.307084e+06    0.000000e+00    1.062219e+05    0.000000e+00   -7.695120e+00    4.618228e+00    9.687912e-26
   1.703297e-04    3.277840e+06    2.528201e+00    3.277837e+06    0.000000e+00    1.055947e+05    0.000000e+00   -8.939552e+00    4.618204e+00    9.687651e-26
   1.713406e-04    3.248852e+06    2.719066e+00    3.248849e+06    0.000000e+00    1.049712e+05    0.000000e+00   -9.380729e+00    4.618179e+00    9.687389e-26
   1.723575e-04    3.220120e+06    2.594867e+00    3.220117e+06    0.000000e+00    1.043514e+05    0.000000e+00   -9.095020e+00    4.618154e+00    9.687125e-26
   1.733804e-04    3.191641e+06    2.159398e+00    3.191639e+06    0.000000e+00    1.037353e+05    0.000000e+00   -8.053361e+00    4.618129e+00    9.686860e-26
   1.744094e-04    3.163414e+06    1.423151e+00    3.163413e+06    0.000000e+00    1.031228e+05    0.000000e+00   -6.112913e+00    4.618104e+00    9.686593e-26
   1.754445e-04    3.135437e+06    3.981664e-01    3.135436e+06    0.000000e+00    1.025139e+05    0.000000e+00   -2.648222e+00    4.618079e+00    9.686324e-26
   1.764858e-04    3.107708e+06    1.344798e+00    3.107707e+06    0.000000e+00    1.019086e+05    0.000000e+00   -5.888713e+00    4.618054e+00    9.686054e-26
   1.775332e-04    3.080224e+06    2.047389e+00    3.080222e+06    0.000000e+00    1.013068e+05    0.000000e+00   -7.774261e+00    4.618029e+00    9.685783e-26
   1.785869e-04    3.052983e+06    2.444415e+00    3.052981e+06    0.000000e+00    1.007086e+05    0.000000e+00   -8.742251e+00    4.618003e+00    9.685509e-26
   1.796468e-04    3.025983e+06    2.539647e+00    3.025980e+06    0.000000e+00    1.001140e+05    0.000000e+00   -8.966238e+00    4.617977e+00    9.685234e-26
   1.807130e-04    2.999221e+06    2.340767e+00    2.999218e+06    0.000000e+00    9.952283e+04    0.000000e+00   -8.494755e+00    4.617951e+00    9.684958e-26
   1.817855e-04    2.972695e+06    1.859568e+00    2.972693e+06    0.000000e+00    9.893517e+04    0.000000e+00   -7.294916e+00    4.617925e+00    9.684679e-26
   1.828644e-04    2.946403e+06    1.094760e+00    2.946402e+06    0.000000e+00    9.835098e+04    0.000000e+00   -5.141508e+00    4.617899e+00    9.684400e-26
   1.839497e-04    2.920344e+06    6.106921e-01    2.920344e+06    0.000000e+00    9.777023e+04    0.000000e+00   -3.502750e+00    4.617873e+00    9.684118e-26
   1.850414e-04    2.894517e+06    1.480436e+00    2.894515e+06    0.000000e+00    9.719291e+04    0.000000e+00   -6.274482e+00    4.617846e+00    9.683835e-26
   1.861396e-04    2.868917e+06    2.052752e+00    2.868915e+06    0.000000e+00    9.661899e+04    0.000000e+00   -7.787628e+00    4.617819e+00    9.683550e-26
   1.872443e-04    2.843544e+06    2.341169e+00    2.843542e+06    0.000000e+00    9.604846e+04    0.000000e+00   -8.495728e+00    4.617792e+00    9.683263e-26
   1.883556e-04    2.818395e+06    2.351455e+00    2.818392e+06    0.000000e+00    9.548130e+04    0.000000e+00   -8.520574e+00    4.617765e+00    9.682975e-26
   1.894735e-04    2.793468e+06    2.086425e+00    2.793465e+06    0.000000e+00    9.491748e+04    0.000000e+00   -7.872204e+00    4.617738e+00    9.682685e-26
   1.905980e-04    2.768760e+06    1.555507e+00    2.768759e+06    0.000000e+00    9.435699e+04    0.000000e+00   -6.482564e+00    4.617711e+00    9.682393e-26
   1.917292e-04    2.744271e+06    7.690891e-01    2.744271e+06    0.000000e+00    9.379981e+04    0.000000e+00   -4.075367e+00    4.617683e+00    9.682100e-26
   1.928671e-04    2.720000e+06    8.348286e-01    2.719999e+06    0.000000e+00    9.324591e+04    0.000000e+00   -4.300934e+00    4.617656e+00    9.681805e-26
   1.940117e-04    2.695943e+06    1.564135e+00    2.695941e+06    0.000000e+00    9.269528e+04    0.000000e+00   -6.506493e+00    4.617628e+00    9.681508e-26
   1.951632e-04    2.672099e+06    2.025276e+00    2.672097e+06    0.000000e+00    9.214791e+04    0.000000e+00   -7.718780e+00    4.617600e+00    9.681209e-26
   1.963215e-04    2.648465e+06    2.217236e+00    2.648463e+06    0.000000e+00    9.160376e+04    0.000000e+00   -8.195479e+00    4.617572e+00    9.680909e-26
   1.974866e-04    2.625040e+06    2.150484e+00    2.625038e+06    0.000000e+00    9.106282e+04    0.000000e+00   -8.031332e+00    4.617544e+00    9.680607e-26
   1.986587e-04    2.601822e+06    1.834272e+00    2.601820e+06    0.000000e+00    9.052507e+04    0.000000e+00   -7.229160e+00    4.617515e+00    9.680303e-26
   1.998377e-04    2.578809e+06    1.267467e+00    2.578808e+06    0.000000e+00    8.999049e+04    0.000000e+00   -5.663025e+00    4.617486e+00    9.679997e-26
   2.010238e-04    2.555999e+06    4.564983e-01    2.555998e+06    0.000000e+00    8.945907e+04    0.000000e+00   -2.895428e+00    4.617458e+00    9.679689e-26
   2.022168e-04    2.533392e+06    1.009006e+00    2.533391e+06    0.000000e+00    8.893079e+04    0.000000e+00   -4.872329e+00    4.617429e+00    9.679380e-26
   2.034170e-04    2.510985e+06    1.617742e+00    2.510983e+06    0.000000e+00    8.840562e+04    0.000000e+00   -6.653067e+00    4.617399e+00    9.679069e-26
   2.046242e-04    2.488775e+06    1.974381e+00    2.488773e+06    0.000000e+00    8.788355e+04    0.000000e+00   -7.589854e+00    4.617370e+00    9.678756e-26
