# All units in Hartree [AU] if not specified
# Convergence: Err(φ)=3.852e-11, Err(n_e)=8.325e-11, Err(IET)=9.371e-13, Q_net=2.787e-07
# {"name":"Ar", "Z":18, "Zstar":1.6408951941171104, "A":39.948,  "μ[AU]": -3.7813550416e-01, "Te[AU]": 1.072e-01, "Ti[AU]": 1.072e-01, "rs[AU]": 1.372e+01 }
   r[AU]           n[AU]           nf[AU]          nb[AU]          n_ion[AU]       φtot[AU]        δVxc/δρ[Au]     U_ei[AU]        U_ii[AU]        g_ii            
   1.000000e-04    7.290093e+06   -2.199019e+01    7.290115e+06    0.000000e+00    1.799176e+05    0.000000e+00    6.235691e+00    1.110230e+02   -2.560310e-15
   1.005935e-04    7.225646e+06   -1.849637e+01    7.225664e+06    0.000000e+00    1.788556e+05    0.000000e+00    6.235691e+00    1.110227e+02   -2.560269e-15
   1.011905e-04    7.161761e+06   -2.202073e+01    7.161783e+06    0.000000e+00    1.777999e+05    0.000000e+00    6.235691e+00    1.110223e+02   -2.560228e-15
   1.017911e-04    7.098448e+06   -1.843426e+01    7.098466e+06    0.000000e+00    1.767504e+05    0.000000e+00    6.235691e+00    1.110219e+02   -2.560187e-15
   1.023952e-04    7.035687e+06   -2.204920e+01    7.035709e+06    0.000000e+00    1.757071e+05    0.000000e+00    6.235691e+00    1.110215e+02   -2.560145e-15
   1.030029e-04    6.973489e+06   -1.837993e+01    6.973507e+06    0.000000e+00    1.746699e+05    0.000000e+00    6.235691e+00    1.110211e+02   -2.560104e-15
   1.036142e-04    6.911832e+06   -2.191413e+01    6.911854e+06    0.000000e+00    1.736389e+05    0.000000e+00    6.235691e+00    1.110208e+02   -2.560062e-15
   1.042292e-04    6.850728e+06   -1.831797e+01    6.850747e+06    0.000000e+00    1.726140e+05    0.000000e+00    6.235691e+00    1.110204e+02   -2.560020e-15
   1.048478e-04    6.790157e+06   -2.165938e+01    6.790179e+06    0.000000e+00    1.715951e+05    0.000000e+00    6.235691e+00    1.110200e+02   -2.559977e-15
   1.054700e-04    6.730128e+06   -1.826871e+01    6.730147e+06    0.000000e+00    1.705822e+05    0.000000e+00    6.235691e+00    1.110196e+02   -2.559935e-15
   1.060960e-04    6.670623e+06   -2.139437e+01    6.670645e+06    0.000000e+00    1.695753e+05    0.000000e+00    6.235691e+00    1.110192e+02   -2.559892e-15
   1.067257e-04    6.611651e+06   -1.821140e+01    6.611669e+06    0.000000e+00    1.685743e+05    0.000000e+00    6.235691e+00    1.110188e+02   -2.559849e-15
   1.073591e-04    6.553193e+06   -2.114750e+01    6.553214e+06    0.000000e+00    1.675793e+05    0.000000e+00    6.235691e+00    1.110184e+02   -2.559805e-15
   1.079962e-04    6.495258e+06   -1.816108e+01    6.495276e+06    0.000000e+00    1.665901e+05    0.000000e+00    6.235691e+00    1.110180e+02   -2.559762e-15
   1.086372e-04    6.437830e+06   -2.090876e+01    6.437850e+06    0.000000e+00    1.656067e+05    0.000000e+00    6.235691e+00    1.110176e+02   -2.559718e-15
   1.092819e-04    6.380914e+06   -1.811770e+01    6.380932e+06    0.000000e+00    1.646292e+05    0.000000e+00    6.235691e+00    1.110172e+02   -2.559674e-15
   1.099305e-04    6.324496e+06   -2.068713e+01    6.324517e+06    0.000000e+00    1.636574e+05    0.000000e+00    6.235691e+00    1.110168e+02   -2.559629e-15
   1.105830e-04    6.268582e+06   -1.806596e+01    6.268600e+06    0.000000e+00    1.626913e+05    0.000000e+00    6.235691e+00    1.110164e+02   -2.559584e-15
   1.112393e-04    6.213157e+06   -2.045533e+01    6.213178e+06    0.000000e+00    1.617310e+05    0.000000e+00    6.235691e+00    1.110159e+02   -2.559539e-15
   1.118995e-04    6.158227e+06   -1.802082e+01    6.158245e+06    0.000000e+00    1.607763e+05    0.000000e+00    6.235691e+00    1.110155e+02   -2.559494e-15
   1.125636e-04    6.103778e+06   -2.023955e+01    6.103798e+06    0.000000e+00    1.598272e+05    0.000000e+00    6.235691e+00    1.110151e+02   -2.559449e-15
   1.132316e-04    6.049814e+06   -1.798097e+01    6.049832e+06    0.000000e+00    1.588838e+05    0.000000e+00    6.235691e+00    1.110147e+02   -2.559403e-15
   1.139037e-04    5.996323e+06   -2.003938e+01    5.996343e+06    0.000000e+00    1.579459e+05    0.000000e+00    6.235691e+00    1.110143e+02   -2.559357e-15
   1.145797e-04    5.943309e+06   -1.794012e+01    5.943327e+06    0.000000e+00    1.570135e+05    0.000000e+00    6.235691e+00    1.110138e+02   -2.559311e-15
   1.152597e-04    5.890759e+06   -1.982919e+01    5.890779e+06    0.000000e+00    1.560867e+05    0.000000e+00    6.235691e+00    1.110134e+02   -2.559264e-15
   1.159437e-04    5.838678e+06   -1.789413e+01    5.838696e+06    0.000000e+00    1.551653e+05    0.000000e+00    6.235691e+00    1.110130e+02   -2.559217e-15
   1.166319e-04    5.787054e+06   -1.963486e+01    5.787073e+06    0.000000e+00    1.542493e+05    0.000000e+00    6.235691e+00    1.110126e+02   -2.559170e-15
   1.173241e-04    5.735889e+06   -1.785429e+01    5.735907e+06    0.000000e+00    1.533388e+05    0.000000e+00    6.235691e+00    1.110121e+02   -2.559123e-15
   1.180204e-04    5.685173e+06   -1.944518e+01    5.685192e+06    0.000000e+00    1.524336e+05    0.000000e+00    6.235691e+00    1.110117e+02   -2.559075e-15
   1.187208e-04    5.634908e+06   -1.782034e+01    5.634926e+06    0.000000e+00    1.515338e+05    0.000000e+00    6.235691e+00    1.110112e+02   -2.559027e-15
   1.194254e-04    5.585085e+06   -1.926222e+01    5.585104e+06    0.000000e+00    1.506393e+05    0.000000e+00    6.235691e+00    1.110108e+02   -2.558979e-15
   1.201342e-04    5.535705e+06   -1.777751e+01    5.535723e+06    0.000000e+00    1.497500e+05    0.000000e+00    6.235691e+00    1.110103e+02   -2.558930e-15
   1.208472e-04    5.486759e+06   -1.908637e+01    5.486778e+06    0.000000e+00    1.488660e+05    0.000000e+00    6.235691e+00    1.110099e+02   -2.558881e-15
   1.215644e-04    5.438248e+06   -1.774302e+01    5.438266e+06    0.000000e+00    1.479872e+05    0.000000e+00    6.235691e+00    1.110094e+02   -2.558832e-15
   1.222859e-04    5.390163e+06   -1.891391e+01    5.390182e+06    0.000000e+00    1.471136e+05    0.000000e+00    6.235691e+00    1.110090e+02   -2.558783e-15
   1.230117e-04    5.342506e+06   -1.770392e+01    5.342523e+06    0.000000e+00    1.462452e+05    0.000000e+00    6.235691e+00    1.110085e+02   -2.558733e-15
   1.237417e-04    5.295267e+06   -1.875424e+01    5.295286e+06    0.000000e+00    1.453819e+05    0.000000e+00    6.235691e+00    1.110081e+02   -2.558683e-15
   1.244761e-04    5.248448e+06   -1.766806e+01    5.248466e+06    0.000000e+00    1.445237e+05    0.000000e+00    6.235691e+00    1.110076e+02   -2.558633e-15
   1.252149e-04    5.202041e+06   -1.858705e+01    5.202060e+06    0.000000e+00    1.436705e+05    0.000000e+00    6.235691e+00    1.110071e+02   -2.558582e-15
   1.259580e-04    5.156046e+06   -1.763779e+01    5.156064e+06    0.000000e+00    1.428224e+05    0.000000e+00    6.235691e+00    1.110067e+02   -2.558531e-15
   1.267056e-04    5.110456e+06   -1.843243e+01    5.110475e+06    0.000000e+00    1.419792e+05    0.000000e+00    6.235691e+00    1.110062e+02   -2.558480e-15
   1.274576e-04    5.065270e+06   -1.760532e+01    5.065288e+06    0.000000e+00    1.411411e+05    0.000000e+00    6.235691e+00    1.110057e+02   -2.558429e-15
   1.282140e-04    5.020483e+06   -1.828569e+01    5.020501e+06    0.000000e+00    1.403079e+05    0.000000e+00    6.235691e+00    1.110053e+02   -2.558377e-15
   1.289750e-04    4.976092e+06   -1.756365e+01    4.976110e+06    0.000000e+00    1.394796e+05    0.000000e+00    6.235691e+00    1.110048e+02   -2.558325e-15
   1.297404e-04    4.932093e+06   -1.813314e+01    4.932111e+06    0.000000e+00    1.386562e+05    0.000000e+00    6.235691e+00    1.110043e+02   -2.558272e-15
   1.305104e-04    4.888483e+06   -1.753446e+01    4.888501e+06    0.000000e+00    1.378376e+05    0.000000e+00    6.235691e+00    1.110038e+02   -2.558219e-15
   1.312850e-04    4.845258e+06   -1.799102e+01    4.845276e+06    0.000000e+00    1.370239e+05    0.000000e+00    6.235691e+00    1.110033e+02   -2.558166e-15
   1.320642e-04    4.802417e+06   -1.749564e+01    4.802434e+06    0.000000e+00    1.362150e+05    0.000000e+00    6.235691e+00    1.110028e+02   -2.558113e-15
   1.328480e-04    4.759952e+06   -1.785303e+01    4.759970e+06    0.000000e+00    1.354109e+05    0.000000e+00    6.235691e+00    1.110023e+02   -2.558059e-15
   1.336364e-04    4.717864e+06   -1.746388e+01    4.717882e+06    0.000000e+00    1.346115e+05    0.000000e+00    6.235691e+00    1.110018e+02   -2.558005e-15
   1.344295e-04    4.676148e+06   -1.771901e+01    4.676165e+06    0.000000e+00    1.338168e+05    0.000000e+00    6.235691e+00    1.110013e+02   -2.557951e-15
   1.352274e-04    4.634800e+06   -1.742864e+01    4.634818e+06    0.000000e+00    1.330268e+05    0.000000e+00    6.235691e+00    1.110008e+02   -2.557896e-15
   1.360299e-04    4.593818e+06   -1.759388e+01    4.593835e+06    0.000000e+00    1.322415e+05    0.000000e+00    6.235691e+00    1.110003e+02   -2.557841e-15
   1.368372e-04    4.553198e+06   -1.739979e+01    4.553215e+06    0.000000e+00    1.314608e+05    0.000000e+00    6.235691e+00    1.109998e+02   -2.557786e-15
   1.376494e-04    4.512937e+06   -1.746241e+01    4.512954e+06    0.000000e+00    1.306847e+05    0.000000e+00    6.235691e+00    1.109993e+02   -2.557731e-15
   1.384663e-04    4.473032e+06   -1.736159e+01    4.473049e+06    0.000000e+00    1.299131e+05    0.000000e+00    6.235691e+00    1.109988e+02   -2.557675e-15
   1.392881e-04    4.433479e+06   -1.733949e+01    4.433496e+06    0.000000e+00    1.291462e+05    0.000000e+00    6.235691e+00    1.109983e+02   -2.557618e-15
   1.401148e-04    4.394276e+06   -1.732784e+01    4.394294e+06    0.000000e+00    1.283837e+05    0.000000e+00    6.235691e+00    1.109978e+02   -2.557562e-15
   1.409463e-04    4.355420e+06   -1.722618e+01    4.355437e+06    0.000000e+00    1.276258e+05    0.000000e+00    6.235691e+00    1.109972e+02   -2.557505e-15
   1.417828e-04    4.316907e+06   -1.730033e+01    4.316924e+06    0.000000e+00    1.268723e+05    0.000000e+00    6.235691e+00    1.109967e+02   -2.557447e-15
   1.426243e-04    4.278735e+06   -1.710369e+01    4.278752e+06    0.000000e+00    1.261233e+05    0.000000e+00    6.235691e+00    1.109962e+02   -2.557390e-15
   1.434708e-04    4.240899e+06   -1.726033e+01    4.240917e+06    0.000000e+00    1.253787e+05    0.000000e+00    6.235691e+00    1.109956e+02   -2.557332e-15
   1.443223e-04    4.203399e+06   -1.699048e+01    4.203416e+06    0.000000e+00    1.246385e+05    0.000000e+00    6.235691e+00    1.109951e+02   -2.557274e-15
   1.451788e-04    4.166229e+06   -1.722628e+01    4.166247e+06    0.000000e+00    1.239027e+05    0.000000e+00    6.235691e+00    1.109946e+02   -2.557215e-15
   1.460404e-04    4.129389e+06   -1.688023e+01    4.129406e+06    0.000000e+00    1.231712e+05    0.000000e+00    6.235691e+00    1.109940e+02   -2.557156e-15
   1.469072e-04    4.092874e+06   -1.719313e+01    4.092891e+06    0.000000e+00    1.224440e+05    0.000000e+00    6.235691e+00    1.109935e+02   -2.557097e-15
   1.477791e-04    4.056682e+06   -1.677698e+01    4.056699e+06    0.000000e+00    1.217211e+05    0.000000e+00    6.235691e+00    1.109929e+02   -2.557037e-15
   1.486561e-04    4.020809e+06   -1.715756e+01    4.020826e+06    0.000000e+00    1.210025e+05    0.000000e+00    6.235691e+00    1.109924e+02   -2.556977e-15
   1.495384e-04    3.985254e+06   -1.666806e+01    3.985271e+06    0.000000e+00    1.202881e+05    0.000000e+00    6.235691e+00    1.109918e+02   -2.556916e-15
   1.504259e-04    3.950013e+06   -1.712710e+01    3.950030e+06    0.000000e+00    1.195779e+05    0.000000e+00    6.235691e+00    1.109913e+02   -2.556856e-15
   1.513187e-04    3.915083e+06   -1.656589e+01    3.915100e+06    0.000000e+00    1.188719e+05    0.000000e+00    6.235691e+00    1.109907e+02   -2.556795e-15
   1.522167e-04    3.880462e+06   -1.708733e+01    3.880479e+06    0.000000e+00    1.181701e+05    0.000000e+00    6.235691e+00    1.109901e+02   -2.556733e-15
   1.531201e-04    3.846148e+06   -1.646629e+01    3.846164e+06    0.000000e+00    1.174724e+05    0.000000e+00    6.235691e+00    1.109896e+02   -2.556671e-15
   1.540289e-04    3.812136e+06   -1.705272e+01    3.812153e+06    0.000000e+00    1.167789e+05    0.000000e+00    6.235691e+00    1.109890e+02   -2.556609e-15
   1.549430e-04    3.778426e+06   -1.636907e+01    3.778442e+06    0.000000e+00    1.160894e+05    0.000000e+00    6.235691e+00    1.109884e+02   -2.556546e-15
   1.558626e-04    3.745012e+06   -1.701563e+01    3.745029e+06    0.000000e+00    1.154040e+05    0.000000e+00    6.235691e+00    1.109878e+02   -2.556483e-15
   1.567877e-04    3.711895e+06   -1.627410e+01    3.711911e+06    0.000000e+00    1.147226e+05    0.000000e+00    6.235691e+00    1.109872e+02   -2.556420e-15
   1.577182e-04    3.679069e+06   -1.697926e+01    3.679086e+06    0.000000e+00    1.140453e+05    0.000000e+00    6.235691e+00    1.109867e+02   -2.556356e-15
   1.586542e-04    3.646535e+06   -1.618110e+01    3.646552e+06    0.000000e+00    1.133719e+05    0.000000e+00    6.235691e+00    1.109861e+02   -2.556292e-15
   1.595958e-04    3.614288e+06   -1.694305e+01    3.614304e+06    0.000000e+00    1.127026e+05    0.000000e+00    6.235691e+00    1.109855e+02   -2.556228e-15
   1.605430e-04    3.582326e+06   -1.609034e+01    3.582342e+06    0.000000e+00    1.120372e+05    0.000000e+00    6.235691e+00    1.109849e+02   -2.556163e-15
   1.614958e-04    3.550646e+06   -1.690491e+01    3.550663e+06    0.000000e+00    1.113757e+05    0.000000e+00    6.235691e+00    1.109843e+02   -2.556098e-15
   1.624543e-04    3.519247e+06   -1.600468e+01    3.519263e+06    0.000000e+00    1.107181e+05    0.000000e+00    6.235691e+00    1.109837e+02   -2.556032e-15
   1.634185e-04    3.488124e+06   -1.687146e+01    3.488141e+06    0.000000e+00    1.100644e+05    0.000000e+00    6.235691e+00    1.109831e+02   -2.555966e-15
   1.643883e-04    3.457278e+06   -1.591937e+01    3.457294e+06    0.000000e+00    1.094145e+05    0.000000e+00    6.235691e+00    1.109825e+02   -2.555900e-15
   1.653640e-04    3.426703e+06   -1.682864e+01    3.426720e+06    0.000000e+00    1.087685e+05    0.000000e+00    6.235691e+00    1.109818e+02   -2.555833e-15
   1.663454e-04    3.396400e+06   -1.582914e+01    3.396416e+06    0.000000e+00    1.081263e+05    0.000000e+00    6.235691e+00    1.109812e+02   -2.555766e-15
   1.673327e-04    3.366363e+06   -1.678934e+01    3.366379e+06    0.000000e+00    1.074879e+05    0.000000e+00    6.235691e+00    1.109806e+02   -2.555698e-15
   1.683258e-04    3.336593e+06   -1.574545e+01    3.336609e+06    0.000000e+00    1.068532e+05    0.000000e+00    6.235691e+00    1.109800e+02   -2.555630e-15
   1.693248e-04    3.307084e+06   -1.674978e+01    3.307101e+06    0.000000e+00    1.062223e+05    0.000000e+00    6.235691e+00    1.109793e+02   -2.555562e-15
   1.703297e-04    3.277839e+06   -1.566539e+01    3.277854e+06    0.000000e+00    1.055951e+05    0.000000e+00    6.235691e+00    1.109787e+02   -2.555493e-15
   1.713406e-04    3.248849e+06   -1.670962e+01    3.248866e+06    0.000000e+00    1.049716e+05    0.000000e+00    6.235691e+00    1.109781e+02   -2.555424e-15
   1.723575e-04    3.220119e+06   -1.558290e+01    3.220134e+06    0.000000e+00    1.043518e+05    0.000000e+00    6.235691e+00    1.109774e+02   -2.555354e-15
   1.733804e-04    3.191639e+06   -1.666876e+01    3.191656e+06    0.000000e+00    1.037357e+05    0.000000e+00    6.235691e+00    1.109768e+02   -2.555284e-15
   1.744094e-04    3.163414e+06   -1.550386e+01    3.163430e+06    0.000000e+00    1.031231e+05    0.000000e+00    6.235691e+00    1.109761e+02   -2.555214e-15
   1.754445e-04    3.135436e+06   -1.662765e+01    3.135453e+06    0.000000e+00    1.025142e+05    0.000000e+00    6.235691e+00    1.109755e+02   -2.555143e-15
   1.764858e-04    3.107708e+06   -1.542617e+01    3.107724e+06    0.000000e+00    1.019089e+05    0.000000e+00    6.235691e+00    1.109748e+02   -2.555072e-15
   1.775332e-04    3.080223e+06   -1.658933e+01    3.080239e+06    0.000000e+00    1.013072e+05    0.000000e+00    6.235691e+00    1.109742e+02   -2.555000e-15
   1.785869e-04    3.052982e+06   -1.534985e+01    3.052998e+06    0.000000e+00    1.007090e+05    0.000000e+00    6.235691e+00    1.109735e+02   -2.554928e-15
   1.796468e-04    3.025980e+06   -1.654254e+01    3.025997e+06    0.000000e+00    1.001143e+05    0.000000e+00    6.235691e+00    1.109728e+02   -2.554856e-15
   1.807130e-04    2.999220e+06   -1.527644e+01    2.999235e+06    0.000000e+00    9.952320e+04    0.000000e+00    6.235691e+00    1.109722e+02   -2.554783e-15
   1.817855e-04    2.972693e+06   -1.650326e+01    2.972710e+06    0.000000e+00    9.893554e+04    0.000000e+00    6.235691e+00    1.109715e+02   -2.554709e-15
   1.828644e-04    2.946403e+06   -1.520476e+01    2.946419e+06    0.000000e+00    9.835134e+04    0.000000e+00    6.235691e+00    1.109708e+02   -2.554635e-15
   1.839497e-04    2.920344e+06   -1.645922e+01    2.920360e+06    0.000000e+00    9.777060e+04    0.000000e+00    6.235691e+00    1.109701e+02   -2.554561e-15
   1.850414e-04    2.894517e+06   -1.512756e+01    2.894532e+06    0.000000e+00    9.719327e+04    0.000000e+00    6.235691e+00    1.109694e+02   -2.554486e-15
   1.861396e-04    2.868915e+06   -1.641056e+01    2.868932e+06    0.000000e+00    9.661936e+04    0.000000e+00    6.235691e+00    1.109687e+02   -2.554411e-15
   1.872443e-04    2.843543e+06   -1.505766e+01    2.843558e+06    0.000000e+00    9.604883e+04    0.000000e+00    6.235691e+00    1.109681e+02   -2.554336e-15
   1.883556e-04    2.818392e+06   -1.636537e+01    2.818409e+06    0.000000e+00    9.548167e+04    0.000000e+00    6.235691e+00    1.109674e+02   -2.554260e-15
   1.894735e-04    2.793467e+06   -1.498883e+01    2.793482e+06    0.000000e+00    9.491785e+04    0.000000e+00    6.235691e+00    1.109666e+02   -2.554183e-15
   1.905980e-04    2.768759e+06   -1.631943e+01    2.768775e+06    0.000000e+00    9.435736e+04    0.000000e+00    6.235691e+00    1.109659e+02   -2.554106e-15
   1.917292e-04    2.744272e+06   -1.491682e+01    2.744287e+06    0.000000e+00    9.380018e+04    0.000000e+00    6.235691e+00    1.109652e+02   -2.554029e-15
   1.928671e-04    2.719999e+06   -1.627264e+01    2.720015e+06    0.000000e+00    9.324628e+04    0.000000e+00    6.235691e+00    1.109645e+02   -2.553951e-15
   1.940117e-04    2.695943e+06   -1.484570e+01    2.695957e+06    0.000000e+00    9.269565e+04    0.000000e+00    6.235691e+00    1.109638e+02   -2.553873e-15
   1.951632e-04    2.672097e+06   -1.622269e+01    2.672113e+06    0.000000e+00    9.214827e+04    0.000000e+00    6.235691e+00    1.109631e+02   -2.553794e-15
   1.963215e-04    2.648464e+06   -1.477748e+01    2.648479e+06    0.000000e+00    9.160412e+04    0.000000e+00    6.235691e+00    1.109623e+02   -2.553715e-15
   1.974866e-04    2.625038e+06   -1.608125e+01    2.625054e+06    0.000000e+00    9.106318e+04    0.000000e+00    6.235691e+00    1.109616e+02   -2.553635e-15
   1.986587e-04    2.601821e+06   -1.471006e+01    2.601836e+06    0.000000e+00    9.052544e+04    0.000000e+00    6.235691e+00    1.109609e+02   -2.553555e-15
   1.998377e-04    2.578807e+06   -1.594681e+01    2.578823e+06    0.000000e+00    8.999086e+04    0.000000e+00    6.235691e+00    1.109601e+02   -2.553474e-15
   2.010238e-04    2.556000e+06   -1.464320e+01    2.556014e+06    0.000000e+00    8.945944e+04    0.000000e+00    6.235691e+00    1.109594e+02   -2.553393e-15
   2.022168e-04    2.533391e+06   -1.581875e+01    2.533407e+06    0.000000e+00    8.893115e+04    0.000000e+00    6.235691e+00    1.109586e+02   -2.553311e-15
   2.034170e-04    2.510984e+06   -1.457711e+01    2.510999e+06    0.000000e+00    8.840599e+04    0.000000e+00    6.235691e+00    1.109579e+02   -2.553229e-15
   2.046242e-04    2.488773e+06   -1.568650e+01    2.488789e+06    0.000000e+00    8.788392e+04    0.000000e+00    6.235691e+00    1.109571e+02   -2.553147e-15
