# All units in Hartree [AU] if not specified
# Convergence: Err(φ)=3.907e-11, Err(n_e)=9.622e-11, Err(IET)=9.728e-13, Q_net=4.840e-07
# {"name":"Ar", "Z":18, "Zstar":1.2232062132320323, "A":39.948,  "μ[AU]": -2.0524234664e-01, "Te[AU]": 6.593e-02, "Ti[AU]": 6.593e-02, "rs[AU]": 1.372e+01 }
   r[AU]           n[AU]           nf[AU]          nb[AU]          n_ion[AU]       φtot[AU]        δVxc/δρ[Au]     U_ei[AU]        U_ii[AU]        g_ii            
   1.000000e-04    7.290097e+06   -7.857884e+00    7.290105e+06    0.000000e+00    1.799174e+05    0.000000e+00    3.785167e+00    6.220451e+01   -1.711362e-14
   1.005935e-04    7.225644e+06   -1.072386e+01    7.225654e+06    0.000000e+00    1.788554e+05    0.000000e+00    3.785167e+00    6.220430e+01   -1.711334e-14
   1.011905e-04    7.161765e+06   -8.130603e+00    7.161773e+06    0.000000e+00    1.777997e+05    0.000000e+00    3.785167e+00    6.220409e+01   -1.711307e-14
   1.017911e-04    7.098447e+06   -9.406543e+00    7.098457e+06    0.000000e+00    1.767502e+05    0.000000e+00    3.785167e+00    6.220388e+01   -1.711280e-14
   1.023952e-04    7.035691e+06   -8.761792e+00    7.035699e+06    0.000000e+00    1.757069e+05    0.000000e+00    3.785167e+00    6.220367e+01   -1.711252e-14
   1.030029e-04    6.973489e+06   -8.508162e+00    6.973497e+06    0.000000e+00    1.746698e+05    0.000000e+00    3.785167e+00    6.220345e+01   -1.711224e-14
   1.036142e-04    6.911835e+06   -9.742918e+00    6.911844e+06    0.000000e+00    1.736387e+05    0.000000e+00    3.785167e+00    6.220324e+01   -1.711196e-14
   1.042292e-04    6.850729e+06   -8.012734e+00    6.850737e+06    0.000000e+00    1.726138e+05    0.000000e+00    3.785167e+00    6.220302e+01   -1.711168e-14
   1.048478e-04    6.790158e+06   -1.105088e+01    6.790169e+06    0.000000e+00    1.715949e+05    0.000000e+00    3.785167e+00    6.220281e+01   -1.711140e-14
   1.054700e-04    6.730129e+06   -7.882414e+00    6.730137e+06    0.000000e+00    1.705820e+05    0.000000e+00    3.785167e+00    6.220259e+01   -1.711111e-14
   1.060960e-04    6.670624e+06   -1.057580e+01    6.670635e+06    0.000000e+00    1.695751e+05    0.000000e+00    3.785167e+00    6.220237e+01   -1.711082e-14
   1.067257e-04    6.611651e+06   -8.114811e+00    6.611659e+06    0.000000e+00    1.685741e+05    0.000000e+00    3.785167e+00    6.220215e+01   -1.711054e-14
   1.073591e-04    6.553195e+06   -9.344118e+00    6.553205e+06    0.000000e+00    1.675791e+05    0.000000e+00    3.785167e+00    6.220192e+01   -1.711025e-14
   1.079962e-04    6.495258e+06   -8.684813e+00    6.495267e+06    0.000000e+00    1.665899e+05    0.000000e+00    3.785167e+00    6.220170e+01   -1.710995e-14
   1.086372e-04    6.437832e+06   -8.501803e+00    6.437841e+06    0.000000e+00    1.656065e+05    0.000000e+00    3.785167e+00    6.220148e+01   -1.710966e-14
   1.092819e-04    6.380913e+06   -9.573673e+00    6.380922e+06    0.000000e+00    1.646290e+05    0.000000e+00    3.785167e+00    6.220125e+01   -1.710937e-14
   1.099305e-04    6.324499e+06   -8.025702e+00    6.324507e+06    0.000000e+00    1.636572e+05    0.000000e+00    3.785167e+00    6.220102e+01   -1.710907e-14
   1.105830e-04    6.268580e+06   -1.076409e+01    6.268590e+06    0.000000e+00    1.626912e+05    0.000000e+00    3.785167e+00    6.220079e+01   -1.710877e-14
   1.112393e-04    6.213160e+06   -7.889146e+00    6.213168e+06    0.000000e+00    1.617308e+05    0.000000e+00    3.785167e+00    6.220056e+01   -1.710847e-14
   1.118995e-04    6.158225e+06   -1.042580e+01    6.158235e+06    0.000000e+00    1.607761e+05    0.000000e+00    3.785167e+00    6.220033e+01   -1.710817e-14
   1.125636e-04    6.103780e+06   -8.086896e+00    6.103788e+06    0.000000e+00    1.598271e+05    0.000000e+00    3.785167e+00    6.220010e+01   -1.710786e-14
   1.132316e-04    6.049813e+06   -9.279890e+00    6.049822e+06    0.000000e+00    1.588836e+05    0.000000e+00    3.785167e+00    6.219986e+01   -1.710756e-14
   1.139037e-04    5.996325e+06   -8.598445e+00    5.996334e+06    0.000000e+00    1.579457e+05    0.000000e+00    3.785167e+00    6.219963e+01   -1.710725e-14
   1.145797e-04    5.943309e+06   -8.476185e+00    5.943317e+06    0.000000e+00    1.570134e+05    0.000000e+00    3.785167e+00    6.219939e+01   -1.710694e-14
   1.152597e-04    5.890760e+06   -9.400800e+00    5.890770e+06    0.000000e+00    1.560865e+05    0.000000e+00    3.785167e+00    6.219915e+01   -1.710663e-14
   1.159437e-04    5.838679e+06   -8.022617e+00    5.838687e+06    0.000000e+00    1.551651e+05    0.000000e+00    3.785167e+00    6.219891e+01   -1.710631e-14
   1.166319e-04    5.787053e+06   -1.048101e+01    5.787064e+06    0.000000e+00    1.542492e+05    0.000000e+00    3.785167e+00    6.219867e+01   -1.710600e-14
   1.173241e-04    5.735890e+06   -7.879578e+00    5.735897e+06    0.000000e+00    1.533386e+05    0.000000e+00    3.785167e+00    6.219843e+01   -1.710568e-14
   1.180204e-04    5.685173e+06   -1.027464e+01    5.685183e+06    0.000000e+00    1.524335e+05    0.000000e+00    3.785167e+00    6.219818e+01   -1.710536e-14
   1.187208e-04    5.634909e+06   -8.044927e+00    5.634917e+06    0.000000e+00    1.515336e+05    0.000000e+00    3.785167e+00    6.219794e+01   -1.710504e-14
   1.194254e-04    5.585086e+06   -9.201449e+00    5.585095e+06    0.000000e+00    1.506391e+05    0.000000e+00    3.785167e+00    6.219769e+01   -1.710472e-14
   1.201342e-04    5.535705e+06   -8.499752e+00    5.535714e+06    0.000000e+00    1.497499e+05    0.000000e+00    3.785167e+00    6.219744e+01   -1.710440e-14
   1.208472e-04    5.486760e+06   -8.440897e+00    5.486769e+06    0.000000e+00    1.488659e+05    0.000000e+00    3.785167e+00    6.219719e+01   -1.710407e-14
   1.215644e-04    5.438247e+06   -9.221706e+00    5.438256e+06    0.000000e+00    1.479871e+05    0.000000e+00    3.785167e+00    6.219694e+01   -1.710374e-14
   1.222859e-04    5.390165e+06   -8.004977e+00    5.390173e+06    0.000000e+00    1.471135e+05    0.000000e+00    3.785167e+00    6.219668e+01   -1.710341e-14
   1.230117e-04    5.342504e+06   -1.020232e+01    5.342514e+06    0.000000e+00    1.462450e+05    0.000000e+00    3.785167e+00    6.219643e+01   -1.710308e-14
   1.237417e-04    5.295269e+06   -7.859148e+00    5.295277e+06    0.000000e+00    1.453817e+05    0.000000e+00    3.785167e+00    6.219617e+01   -1.710274e-14
   1.244761e-04    5.248447e+06   -1.012255e+01    5.248457e+06    0.000000e+00    1.445235e+05    0.000000e+00    3.785167e+00    6.219592e+01   -1.710241e-14
   1.252149e-04    5.202043e+06   -7.990648e+00    5.202051e+06    0.000000e+00    1.436703e+05    0.000000e+00    3.785167e+00    6.219566e+01   -1.710207e-14
   1.259580e-04    5.156046e+06   -9.112855e+00    5.156055e+06    0.000000e+00    1.428222e+05    0.000000e+00    3.785167e+00    6.219540e+01   -1.710173e-14
   1.267056e-04    5.110457e+06   -8.392817e+00    5.110466e+06    0.000000e+00    1.419791e+05    0.000000e+00    3.785167e+00    6.219513e+01   -1.710139e-14
   1.274576e-04    5.065271e+06   -8.394621e+00    5.065279e+06    0.000000e+00    1.411409e+05    0.000000e+00    3.785167e+00    6.219487e+01   -1.710104e-14
   1.282140e-04    5.020483e+06   -9.041434e+00    5.020492e+06    0.000000e+00    1.403077e+05    0.000000e+00    3.785167e+00    6.219460e+01   -1.710070e-14
   1.289750e-04    4.976093e+06   -7.970243e+00    4.976101e+06    0.000000e+00    1.394794e+05    0.000000e+00    3.785167e+00    6.219434e+01   -1.710035e-14
   1.297404e-04    4.932092e+06   -9.935132e+00    4.932102e+06    0.000000e+00    1.386560e+05    0.000000e+00    3.785167e+00    6.219407e+01   -1.710000e-14
   1.305104e-04    4.888484e+06   -7.822287e+00    4.888492e+06    0.000000e+00    1.378375e+05    0.000000e+00    3.785167e+00    6.219380e+01   -1.709965e-14
   1.312850e-04    4.845258e+06   -9.968718e+00    4.845268e+06    0.000000e+00    1.370238e+05    0.000000e+00    3.785167e+00    6.219353e+01   -1.709929e-14
   1.320642e-04    4.802417e+06   -7.925673e+00    4.802425e+06    0.000000e+00    1.362148e+05    0.000000e+00    3.785167e+00    6.219325e+01   -1.709893e-14
   1.328480e-04    4.759952e+06   -9.019375e+00    4.759961e+06    0.000000e+00    1.354107e+05    0.000000e+00    3.785167e+00    6.219298e+01   -1.709858e-14
   1.336364e-04    4.717865e+06   -8.276829e+00    4.717873e+06    0.000000e+00    1.346113e+05    0.000000e+00    3.785167e+00    6.219270e+01   -1.709821e-14
   1.344295e-04    4.676148e+06   -8.338503e+00    4.676157e+06    0.000000e+00    1.338166e+05    0.000000e+00    3.785167e+00    6.219242e+01   -1.709785e-14
   1.352274e-04    4.634800e+06   -8.859345e+00    4.634809e+06    0.000000e+00    1.330266e+05    0.000000e+00    3.785167e+00    6.219214e+01   -1.709749e-14
   1.360299e-04    4.593819e+06   -7.928887e+00    4.593827e+06    0.000000e+00    1.322413e+05    0.000000e+00    3.785167e+00    6.219186e+01   -1.709712e-14
   1.368372e-04    4.553197e+06   -9.666082e+00    4.553207e+06    0.000000e+00    1.314606e+05    0.000000e+00    3.785167e+00    6.219158e+01   -1.709675e-14
   1.376494e-04    4.512938e+06   -7.774162e+00    4.512946e+06    0.000000e+00    1.306845e+05    0.000000e+00    3.785167e+00    6.219129e+01   -1.709638e-14
   1.384663e-04    4.473031e+06   -9.814547e+00    4.473040e+06    0.000000e+00    1.299130e+05    0.000000e+00    3.785167e+00    6.219101e+01   -1.709600e-14
   1.392881e-04    4.433480e+06   -7.853857e+00    4.433488e+06    0.000000e+00    1.291460e+05    0.000000e+00    3.785167e+00    6.219072e+01   -1.709563e-14
   1.401148e-04    4.394276e+06   -8.920417e+00    4.394285e+06    0.000000e+00    1.283836e+05    0.000000e+00    3.785167e+00    6.219043e+01   -1.709525e-14
   1.409463e-04    4.355421e+06   -8.157347e+00    4.355429e+06    0.000000e+00    1.276256e+05    0.000000e+00    3.785167e+00    6.219014e+01   -1.709487e-14
   1.417828e-04    4.316908e+06   -8.279827e+00    4.316916e+06    0.000000e+00    1.268722e+05    0.000000e+00    3.785167e+00    6.218984e+01   -1.709449e-14
   1.426243e-04    4.278735e+06   -8.676714e+00    4.278743e+06    0.000000e+00    1.261232e+05    0.000000e+00    3.785167e+00    6.218955e+01   -1.709410e-14
   1.434708e-04    4.240900e+06   -7.877451e+00    4.240908e+06    0.000000e+00    1.253786e+05    0.000000e+00    3.785167e+00    6.218925e+01   -1.709371e-14
   1.443223e-04    4.203398e+06   -9.402748e+00    4.203408e+06    0.000000e+00    1.246383e+05    0.000000e+00    3.785167e+00    6.218895e+01   -1.709332e-14
   1.451788e-04    4.166231e+06   -7.716322e+00    4.166238e+06    0.000000e+00    1.239025e+05    0.000000e+00    3.785167e+00    6.218865e+01   -1.709293e-14
   1.460404e-04    4.129388e+06   -9.660283e+00    4.129398e+06    0.000000e+00    1.231710e+05    0.000000e+00    3.785167e+00    6.218835e+01   -1.709254e-14
   1.469072e-04    4.092875e+06   -7.769092e+00    4.092883e+06    0.000000e+00    1.224438e+05    0.000000e+00    3.785167e+00    6.218804e+01   -1.709214e-14
   1.477791e-04    4.056681e+06   -8.812460e+00    4.056690e+06    0.000000e+00    1.217209e+05    0.000000e+00    3.785167e+00    6.218774e+01   -1.709174e-14
   1.486561e-04    4.020810e+06   -8.037156e+00    4.020818e+06    0.000000e+00    1.210023e+05    0.000000e+00    3.785167e+00    6.218743e+01   -1.709134e-14
   1.495384e-04    3.985254e+06   -8.205380e+00    3.985263e+06    0.000000e+00    1.202879e+05    0.000000e+00    3.785167e+00    6.218712e+01   -1.709094e-14
   1.504259e-04    3.950013e+06   -8.495012e+00    3.950021e+06    0.000000e+00    1.195777e+05    0.000000e+00    3.785167e+00    6.218681e+01   -1.709053e-14
   1.513187e-04    3.915084e+06   -7.816897e+00    3.915092e+06    0.000000e+00    1.188717e+05    0.000000e+00    3.785167e+00    6.218649e+01   -1.709012e-14
   1.522167e-04    3.880462e+06   -9.145450e+00    3.880471e+06    0.000000e+00    1.181699e+05    0.000000e+00    3.785167e+00    6.218618e+01   -1.708971e-14
   1.531201e-04    3.846149e+06   -7.649859e+00    3.846156e+06    0.000000e+00    1.174722e+05    0.000000e+00    3.785167e+00    6.218586e+01   -1.708930e-14
   1.540289e-04    3.812135e+06   -9.511239e+00    3.812145e+06    0.000000e+00    1.167787e+05    0.000000e+00    3.785167e+00    6.218554e+01   -1.708888e-14
   1.549430e-04    3.778426e+06   -7.679966e+00    3.778434e+06    0.000000e+00    1.160892e+05    0.000000e+00    3.785167e+00    6.218522e+01   -1.708846e-14
   1.558626e-04    3.745012e+06   -8.704832e+00    3.745021e+06    0.000000e+00    1.154038e+05    0.000000e+00    3.785167e+00    6.218490e+01   -1.708804e-14
   1.567877e-04    3.711895e+06   -7.908739e+00    3.711903e+06    0.000000e+00    1.147225e+05    0.000000e+00    3.785167e+00    6.218458e+01   -1.708762e-14
   1.577182e-04    3.679070e+06   -8.126051e+00    3.679078e+06    0.000000e+00    1.140451e+05    0.000000e+00    3.785167e+00    6.218425e+01   -1.708719e-14
   1.586542e-04    3.646535e+06   -8.312946e+00    3.646544e+06    0.000000e+00    1.133718e+05    0.000000e+00    3.785167e+00    6.218392e+01   -1.708677e-14
   1.595958e-04    3.614289e+06   -7.752181e+00    3.614297e+06    0.000000e+00    1.127024e+05    0.000000e+00    3.785167e+00    6.218359e+01   -1.708633e-14
   1.605430e-04    3.582326e+06   -8.894663e+00    3.582334e+06    0.000000e+00    1.120370e+05    0.000000e+00    3.785167e+00    6.218326e+01   -1.708590e-14
   1.614958e-04    3.550647e+06   -7.575703e+00    3.550655e+06    0.000000e+00    1.113755e+05    0.000000e+00    3.785167e+00    6.218292e+01   -1.708546e-14
   1.624543e-04    3.519246e+06   -9.356782e+00    3.519255e+06    0.000000e+00    1.107179e+05    0.000000e+00    3.785167e+00    6.218259e+01   -1.708503e-14
   1.634185e-04    3.488126e+06   -7.585269e+00    3.488133e+06    0.000000e+00    1.100642e+05    0.000000e+00    3.785167e+00    6.218225e+01   -1.708459e-14
   1.643883e-04    3.457278e+06   -8.593124e+00    3.457286e+06    0.000000e+00    1.094143e+05    0.000000e+00    3.785167e+00    6.218191e+01   -1.708414e-14
   1.653640e-04    3.426704e+06   -7.779357e+00    3.426712e+06    0.000000e+00    1.087683e+05    0.000000e+00    3.785167e+00    6.218157e+01   -1.708369e-14
   1.663454e-04    3.396400e+06   -8.040909e+00    3.396408e+06    0.000000e+00    1.081261e+05    0.000000e+00    3.785167e+00    6.218122e+01   -1.708325e-14
   1.673327e-04    3.366364e+06   -8.131222e+00    3.366372e+06    0.000000e+00    1.074877e+05    0.000000e+00    3.785167e+00    6.218087e+01   -1.708279e-14
   1.683258e-04    3.336593e+06   -7.674055e+00    3.336601e+06    0.000000e+00    1.068530e+05    0.000000e+00    3.785167e+00    6.218053e+01   -1.708234e-14
   1.693248e-04    3.307085e+06   -8.646377e+00    3.307093e+06    0.000000e+00    1.062221e+05    0.000000e+00    3.785167e+00    6.218018e+01   -1.708188e-14
   1.703297e-04    3.277839e+06   -7.495556e+00    3.277847e+06    0.000000e+00    1.055949e+05    0.000000e+00    3.785167e+00    6.217982e+01   -1.708142e-14
   1.713406e-04    3.248849e+06   -9.202655e+00    3.248859e+06    0.000000e+00    1.049715e+05    0.000000e+00    3.785167e+00    6.217947e+01   -1.708096e-14
   1.723575e-04    3.220119e+06   -7.485759e+00    3.220127e+06    0.000000e+00    1.043516e+05    0.000000e+00    3.785167e+00    6.217911e+01   -1.708050e-14
   1.733804e-04    3.191640e+06   -8.479172e+00    3.191649e+06    0.000000e+00    1.037355e+05    0.000000e+00    3.785167e+00    6.217875e+01   -1.708003e-14
   1.744094e-04    3.163415e+06   -7.646376e+00    3.163422e+06    0.000000e+00    1.031230e+05    0.000000e+00    3.785167e+00    6.217839e+01   -1.707956e-14
   1.754445e-04    3.135438e+06   -7.947404e+00    3.135445e+06    0.000000e+00    1.025141e+05    0.000000e+00    3.785167e+00    6.217803e+01   -1.707908e-14
   1.764858e-04    3.107708e+06   -7.955994e+00    3.107716e+06    0.000000e+00    1.019088e+05    0.000000e+00    3.785167e+00    6.217766e+01   -1.707861e-14
   1.775332e-04    3.080224e+06   -7.593565e+00    3.080232e+06    0.000000e+00    1.013070e+05    0.000000e+00    3.785167e+00    6.217729e+01   -1.707813e-14
   1.785869e-04    3.052982e+06   -8.409358e+00    3.052990e+06    0.000000e+00    1.007088e+05    0.000000e+00    3.785167e+00    6.217692e+01   -1.707765e-14
   1.796468e-04    3.025982e+06   -7.410013e+00    3.025989e+06    0.000000e+00    1.001142e+05    0.000000e+00    3.785167e+00    6.217655e+01   -1.707716e-14
   1.807130e-04    2.999218e+06   -9.008243e+00    2.999228e+06    0.000000e+00    9.952303e+04    0.000000e+00    3.785167e+00    6.217618e+01   -1.707667e-14
   1.817855e-04    2.972695e+06   -7.384291e+00    2.972702e+06    0.000000e+00    9.893537e+04    0.000000e+00    3.785167e+00    6.217580e+01   -1.707618e-14
   1.828644e-04    2.946403e+06   -8.362938e+00    2.946411e+06    0.000000e+00    9.835118e+04    0.000000e+00    3.785167e+00    6.217542e+01   -1.707569e-14
   1.839497e-04    2.920345e+06   -7.507866e+00    2.920353e+06    0.000000e+00    9.777043e+04    0.000000e+00    3.785167e+00    6.217504e+01   -1.707519e-14
   1.850414e-04    2.894516e+06   -7.854317e+00    2.894524e+06    0.000000e+00    9.719311e+04    0.000000e+00    3.785167e+00    6.217466e+01   -1.707469e-14
   1.861396e-04    2.868917e+06   -7.779138e+00    2.868924e+06    0.000000e+00    9.661919e+04    0.000000e+00    3.785167e+00    6.217427e+01   -1.707419e-14
   1.872443e-04    2.843543e+06   -7.508062e+00    2.843551e+06    0.000000e+00    9.604866e+04    0.000000e+00    3.785167e+00    6.217389e+01   -1.707369e-14
   1.883556e-04    2.818393e+06   -8.179756e+00    2.818401e+06    0.000000e+00    9.548150e+04    0.000000e+00    3.785167e+00    6.217350e+01   -1.707318e-14
   1.894735e-04    2.793467e+06   -7.322382e+00    2.793474e+06    0.000000e+00    9.491768e+04    0.000000e+00    3.785167e+00    6.217310e+01   -1.707267e-14
   1.905980e-04    2.768759e+06   -8.713445e+00    2.768768e+06    0.000000e+00    9.435719e+04    0.000000e+00    3.785167e+00    6.217271e+01   -1.707215e-14
   1.917292e-04    2.744272e+06   -7.276085e+00    2.744279e+06    0.000000e+00    9.380001e+04    0.000000e+00    3.785167e+00    6.217231e+01   -1.707163e-14
   1.928671e-04    2.719999e+06   -8.245101e+00    2.720008e+06    0.000000e+00    9.324611e+04    0.000000e+00    3.785167e+00    6.217191e+01   -1.707111e-14
   1.940117e-04    2.695943e+06   -7.373307e+00    2.695950e+06    0.000000e+00    9.269549e+04    0.000000e+00    3.785167e+00    6.217151e+01   -1.707059e-14
   1.951632e-04    2.672098e+06   -7.756686e+00    2.672106e+06    0.000000e+00    9.214811e+04    0.000000e+00    3.785167e+00    6.217111e+01   -1.707006e-14
   1.963215e-04    2.648464e+06   -7.605311e+00    2.648472e+06    0.000000e+00    9.160396e+04    0.000000e+00    3.785167e+00    6.217070e+01   -1.706953e-14
   1.974866e-04    2.625039e+06   -7.418614e+00    2.625047e+06    0.000000e+00    9.106302e+04    0.000000e+00    3.785167e+00    6.217029e+01   -1.706900e-14
   1.986587e-04    2.601821e+06   -7.956161e+00    2.601829e+06    0.000000e+00    9.052527e+04    0.000000e+00    3.785167e+00    6.216988e+01   -1.706847e-14
   1.998377e-04    2.578809e+06   -7.228601e+00    2.578816e+06    0.000000e+00    8.999070e+04    0.000000e+00    3.785167e+00    6.216947e+01   -1.706793e-14
   2.010238e-04    2.555999e+06   -8.427312e+00    2.556007e+06    0.000000e+00    8.945927e+04    0.000000e+00    3.785167e+00    6.216905e+01   -1.706738e-14
   2.022168e-04    2.533392e+06   -7.169464e+00    2.533399e+06    0.000000e+00    8.893099e+04    0.000000e+00    3.785167e+00    6.216863e+01   -1.706684e-14
   2.034170e-04    2.510984e+06   -8.125707e+00    2.510992e+06    0.000000e+00    8.840582e+04    0.000000e+00    3.785167e+00    6.216821e+01   -1.706629e-14
   2.046242e-04    2.488775e+06   -7.238735e+00    2.488782e+06    0.000000e+00    8.788375e+04    0.000000e+00    3.785167e+00    6.216779e+01   -1.706574e-14
