# All units in Hartree [AU] if not specified
# Convergence: Err(φ)=4.001e-11, Err(n_e)=8.113e-11, Err(IET)=9.281e-13, Q_net=3.602e-07
# {"name":"Ar", "Z":18, "Zstar":0.9498828885830584, "A":39.948,  "μ[AU]": -1.1621876530e-01, "Te[AU]": 4.259e-02, "Ti[AU]": 4.259e-02, "rs[AU]": 1.372e+01 }
   r[AU]           n[AU]           nf[AU]          nb[AU]          n_ion[AU]       φtot[AU]        δVxc/δρ[Au]     U_ei[AU]        U_ii[AU]        g_ii            
   1.000000e-04    7.290096e+06   -4.430397e+00    7.290100e+06    0.000000e+00    1.799173e+05    0.000000e+00    2.409188e+00    3.773733e+01   -5.731480e-14
   1.005935e-04    7.225647e+06   -2.346301e+00    7.225649e+06    0.000000e+00    1.788553e+05    0.000000e+00    2.409188e+00    3.773721e+01   -5.731389e-14
   1.011905e-04    7.161762e+06   -5.572915e+00    7.161768e+06    0.000000e+00    1.777996e+05    0.000000e+00    2.409188e+00    3.773708e+01   -5.731298e-14
   1.017911e-04    7.098449e+06   -2.741283e+00    7.098451e+06    0.000000e+00    1.767501e+05    0.000000e+00    2.409188e+00    3.773695e+01   -5.731206e-14
   1.023952e-04    7.035691e+06   -3.360028e+00    7.035694e+06    0.000000e+00    1.757068e+05    0.000000e+00    2.409188e+00    3.773682e+01   -5.731113e-14
   1.030029e-04    6.973488e+06   -4.356981e+00    6.973492e+06    0.000000e+00    1.746697e+05    0.000000e+00    2.409188e+00    3.773670e+01   -5.731020e-14
   1.036142e-04    6.911837e+06   -2.457691e+00    6.911839e+06    0.000000e+00    1.736387e+05    0.000000e+00    2.409188e+00    3.773657e+01   -5.730926e-14
   1.042292e-04    6.850726e+06   -5.629333e+00    6.850732e+06    0.000000e+00    1.726137e+05    0.000000e+00    2.409188e+00    3.773644e+01   -5.730832e-14
   1.048478e-04    6.790161e+06   -2.791889e+00    6.790164e+06    0.000000e+00    1.715948e+05    0.000000e+00    2.409188e+00    3.773631e+01   -5.730737e-14
   1.054700e-04    6.730128e+06   -3.473228e+00    6.730132e+06    0.000000e+00    1.705819e+05    0.000000e+00    2.409188e+00    3.773617e+01   -5.730641e-14
   1.060960e-04    6.670626e+06   -4.287412e+00    6.670630e+06    0.000000e+00    1.695750e+05    0.000000e+00    2.409188e+00    3.773604e+01   -5.730545e-14
   1.067257e-04    6.611652e+06   -2.563215e+00    6.611654e+06    0.000000e+00    1.685741e+05    0.000000e+00    2.409188e+00    3.773591e+01   -5.730449e-14
   1.073591e-04    6.553194e+06   -5.688218e+00    6.553200e+06    0.000000e+00    1.675790e+05    0.000000e+00    2.409188e+00    3.773577e+01   -5.730352e-14
   1.079962e-04    6.495259e+06   -2.836373e+00    6.495262e+06    0.000000e+00    1.665898e+05    0.000000e+00    2.409188e+00    3.773564e+01   -5.730254e-14
   1.086372e-04    6.437832e+06   -3.578998e+00    6.437836e+06    0.000000e+00    1.656065e+05    0.000000e+00    2.409188e+00    3.773550e+01   -5.730156e-14
   1.092819e-04    6.380913e+06   -4.220108e+00    6.380917e+06    0.000000e+00    1.646289e+05    0.000000e+00    2.409188e+00    3.773537e+01   -5.730057e-14
   1.099305e-04    6.324499e+06   -2.667258e+00    6.324502e+06    0.000000e+00    1.636571e+05    0.000000e+00    2.409188e+00    3.773523e+01   -5.729957e-14
   1.105830e-04    6.268580e+06   -5.741015e+00    6.268586e+06    0.000000e+00    1.626911e+05    0.000000e+00    2.409188e+00    3.773509e+01   -5.729857e-14
   1.112393e-04    6.213160e+06   -2.878380e+00    6.213163e+06    0.000000e+00    1.617307e+05    0.000000e+00    2.409188e+00    3.773495e+01   -5.729757e-14
   1.118995e-04    6.158227e+06   -3.677593e+00    6.158230e+06    0.000000e+00    1.607760e+05    0.000000e+00    2.409188e+00    3.773481e+01   -5.729655e-14
   1.125636e-04    6.103779e+06   -4.157584e+00    6.103783e+06    0.000000e+00    1.598270e+05    0.000000e+00    2.409188e+00    3.773467e+01   -5.729554e-14
   1.132316e-04    6.049815e+06   -2.755595e+00    6.049818e+06    0.000000e+00    1.588835e+05    0.000000e+00    2.409188e+00    3.773453e+01   -5.729451e-14
   1.139037e-04    5.996323e+06   -5.788243e+00    5.996329e+06    0.000000e+00    1.579456e+05    0.000000e+00    2.409188e+00    3.773439e+01   -5.729348e-14
   1.145797e-04    5.943310e+06   -2.923542e+00    5.943313e+06    0.000000e+00    1.570133e+05    0.000000e+00    2.409188e+00    3.773425e+01   -5.729244e-14
   1.152597e-04    5.890761e+06   -3.769692e+00    5.890765e+06    0.000000e+00    1.560864e+05    0.000000e+00    2.409188e+00    3.773410e+01   -5.729140e-14
   1.159437e-04    5.838678e+06   -4.098257e+00    5.838682e+06    0.000000e+00    1.551650e+05    0.000000e+00    2.409188e+00    3.773396e+01   -5.729035e-14
   1.166319e-04    5.787056e+06   -2.843556e+00    5.787059e+06    0.000000e+00    1.542491e+05    0.000000e+00    2.409188e+00    3.773381e+01   -5.728930e-14
   1.173241e-04    5.735887e+06   -5.838537e+00    5.735893e+06    0.000000e+00    1.533385e+05    0.000000e+00    2.409188e+00    3.773367e+01   -5.728824e-14
   1.180204e-04    5.685175e+06   -2.952700e+00    5.685178e+06    0.000000e+00    1.524334e+05    0.000000e+00    2.409188e+00    3.773352e+01   -5.728717e-14
   1.187208e-04    5.634908e+06   -3.861758e+00    5.634912e+06    0.000000e+00    1.515335e+05    0.000000e+00    2.409188e+00    3.773337e+01   -5.728609e-14
   1.194254e-04    5.585086e+06   -4.041887e+00    5.585090e+06    0.000000e+00    1.506390e+05    0.000000e+00    2.409188e+00    3.773322e+01   -5.728501e-14
   1.201342e-04    5.535706e+06   -2.934093e+00    5.535709e+06    0.000000e+00    1.497498e+05    0.000000e+00    2.409188e+00    3.773307e+01   -5.728393e-14
   1.208472e-04    5.486758e+06   -5.867487e+00    5.486764e+06    0.000000e+00    1.488658e+05    0.000000e+00    2.409188e+00    3.773292e+01   -5.728283e-14
   1.215644e-04    5.438249e+06   -2.988171e+00    5.438252e+06    0.000000e+00    1.479870e+05    0.000000e+00    2.409188e+00    3.773277e+01   -5.728173e-14
   1.222859e-04    5.390164e+06   -3.941156e+00    5.390168e+06    0.000000e+00    1.471134e+05    0.000000e+00    2.409188e+00    3.773262e+01   -5.728063e-14
   1.230117e-04    5.342505e+06   -3.994421e+00    5.342509e+06    0.000000e+00    1.462449e+05    0.000000e+00    2.409188e+00    3.773246e+01   -5.727951e-14
   1.237417e-04    5.295269e+06   -3.003962e+00    5.295272e+06    0.000000e+00    1.453816e+05    0.000000e+00    2.409188e+00    3.773231e+01   -5.727839e-14
   1.244761e-04    5.248446e+06   -5.883277e+00    5.248452e+06    0.000000e+00    1.445234e+05    0.000000e+00    2.409188e+00    3.773215e+01   -5.727727e-14
   1.252149e-04    5.202043e+06   -3.021721e+00    5.202046e+06    0.000000e+00    1.436702e+05    0.000000e+00    2.409188e+00    3.773200e+01   -5.727614e-14
   1.259580e-04    5.156046e+06   -4.014816e+00    5.156050e+06    0.000000e+00    1.428221e+05    0.000000e+00    2.409188e+00    3.773184e+01   -5.727500e-14
   1.267056e-04    5.110457e+06   -3.944935e+00    5.110461e+06    0.000000e+00    1.419790e+05    0.000000e+00    2.409188e+00    3.773168e+01   -5.727385e-14
   1.274576e-04    5.065271e+06   -3.076962e+00    5.065275e+06    0.000000e+00    1.411408e+05    0.000000e+00    2.409188e+00    3.773152e+01   -5.727270e-14
   1.282140e-04    5.020482e+06   -5.710074e+00    5.020488e+06    0.000000e+00    1.403076e+05    0.000000e+00    2.409188e+00    3.773136e+01   -5.727154e-14
   1.289750e-04    4.976093e+06   -3.053163e+00    4.976096e+06    0.000000e+00    1.394793e+05    0.000000e+00    2.409188e+00    3.773120e+01   -5.727037e-14
   1.297404e-04    4.932093e+06   -4.077526e+00    4.932098e+06    0.000000e+00    1.386559e+05    0.000000e+00    2.409188e+00    3.773104e+01   -5.726920e-14
   1.305104e-04    4.888484e+06   -3.889303e+00    4.888488e+06    0.000000e+00    1.378374e+05    0.000000e+00    2.409188e+00    3.773087e+01   -5.726802e-14
   1.312850e-04    4.845260e+06   -3.145374e+00    4.845263e+06    0.000000e+00    1.370237e+05    0.000000e+00    2.409188e+00    3.773071e+01   -5.726683e-14
   1.320642e-04    4.802415e+06   -5.538731e+00    4.802421e+06    0.000000e+00    1.362148e+05    0.000000e+00    2.409188e+00    3.773055e+01   -5.726563e-14
   1.328480e-04    4.759954e+06   -3.085585e+00    4.759957e+06    0.000000e+00    1.354106e+05    0.000000e+00    2.409188e+00    3.773038e+01   -5.726443e-14
   1.336364e-04    4.717864e+06   -4.140746e+00    4.717869e+06    0.000000e+00    1.346112e+05    0.000000e+00    2.409188e+00    3.773021e+01   -5.726322e-14
   1.344295e-04    4.676148e+06   -3.843367e+00    4.676152e+06    0.000000e+00    1.338165e+05    0.000000e+00    2.409188e+00    3.773005e+01   -5.726201e-14
   1.352274e-04    4.634801e+06   -3.209496e+00    4.634804e+06    0.000000e+00    1.330265e+05    0.000000e+00    2.409188e+00    3.772988e+01   -5.726079e-14
   1.360299e-04    4.593817e+06   -5.389156e+00    4.593822e+06    0.000000e+00    1.322412e+05    0.000000e+00    2.409188e+00    3.772971e+01   -5.725955e-14
   1.368372e-04    4.553199e+06   -3.110682e+00    4.553202e+06    0.000000e+00    1.314605e+05    0.000000e+00    2.409188e+00    3.772954e+01   -5.725832e-14
   1.376494e-04    4.512937e+06   -4.200388e+00    4.512941e+06    0.000000e+00    1.306844e+05    0.000000e+00    2.409188e+00    3.772936e+01   -5.725707e-14
   1.384663e-04    4.473032e+06   -3.799887e+00    4.473036e+06    0.000000e+00    1.299129e+05    0.000000e+00    2.409188e+00    3.772919e+01   -5.725582e-14
   1.392881e-04    4.433480e+06   -3.271836e+00    4.433484e+06    0.000000e+00    1.291459e+05    0.000000e+00    2.409188e+00    3.772902e+01   -5.725456e-14
   1.401148e-04    4.394275e+06   -5.234884e+00    4.394281e+06    0.000000e+00    1.283835e+05    0.000000e+00    2.409188e+00    3.772884e+01   -5.725329e-14
   1.409463e-04    4.355421e+06   -3.140233e+00    4.355424e+06    0.000000e+00    1.276256e+05    0.000000e+00    2.409188e+00    3.772867e+01   -5.725202e-14
   1.417828e-04    4.316907e+06   -4.252952e+00    4.316911e+06    0.000000e+00    1.268721e+05    0.000000e+00    2.409188e+00    3.772849e+01   -5.725074e-14
   1.426243e-04    4.278735e+06   -3.758611e+00    4.278739e+06    0.000000e+00    1.261231e+05    0.000000e+00    2.409188e+00    3.772831e+01   -5.724945e-14
   1.434708e-04    4.240901e+06   -3.325542e+00    4.240904e+06    0.000000e+00    1.253785e+05    0.000000e+00    2.409188e+00    3.772813e+01   -5.724815e-14
   1.443223e-04    4.203398e+06   -5.094203e+00    4.203403e+06    0.000000e+00    1.246383e+05    0.000000e+00    2.409188e+00    3.772795e+01   -5.724684e-14
   1.451788e-04    4.166231e+06   -3.161165e+00    4.166234e+06    0.000000e+00    1.239024e+05    0.000000e+00    2.409188e+00    3.772777e+01   -5.724553e-14
   1.460404e-04    4.129389e+06   -4.302376e+00    4.129393e+06    0.000000e+00    1.231709e+05    0.000000e+00    2.409188e+00    3.772759e+01   -5.724421e-14
   1.469072e-04    4.092875e+06   -3.719195e+00    4.092878e+06    0.000000e+00    1.224437e+05    0.000000e+00    2.409188e+00    3.772740e+01   -5.724288e-14
   1.477791e-04    4.056683e+06   -3.379858e+00    4.056686e+06    0.000000e+00    1.217208e+05    0.000000e+00    2.409188e+00    3.772722e+01   -5.724154e-14
   1.486561e-04    4.020809e+06   -4.960747e+00    4.020814e+06    0.000000e+00    1.210022e+05    0.000000e+00    2.409188e+00    3.772703e+01   -5.724020e-14
   1.495384e-04    3.985255e+06   -3.184009e+00    3.985258e+06    0.000000e+00    1.202878e+05    0.000000e+00    2.409188e+00    3.772685e+01   -5.723885e-14
   1.504259e-04    3.950013e+06   -4.353177e+00    3.950017e+06    0.000000e+00    1.195776e+05    0.000000e+00    2.409188e+00    3.772666e+01   -5.723749e-14
   1.513187e-04    3.915084e+06   -3.681740e+00    3.915088e+06    0.000000e+00    1.188717e+05    0.000000e+00    2.409188e+00    3.772647e+01   -5.723612e-14
   1.522167e-04    3.880463e+06   -3.428632e+00    3.880467e+06    0.000000e+00    1.181698e+05    0.000000e+00    2.409188e+00    3.772628e+01   -5.723474e-14
   1.531201e-04    3.846147e+06   -4.833982e+00    3.846152e+06    0.000000e+00    1.174722e+05    0.000000e+00    2.409188e+00    3.772609e+01   -5.723336e-14
   1.540289e-04    3.812137e+06   -3.207881e+00    3.812140e+06    0.000000e+00    1.167786e+05    0.000000e+00    2.409188e+00    3.772590e+01   -5.723197e-14
   1.549430e-04    3.778425e+06   -4.388854e+00    3.778430e+06    0.000000e+00    1.160891e+05    0.000000e+00    2.409188e+00    3.772570e+01   -5.723057e-14
   1.558626e-04    3.745013e+06   -3.646217e+00    3.745017e+06    0.000000e+00    1.154037e+05    0.000000e+00    2.409188e+00    3.772551e+01   -5.722916e-14
   1.567877e-04    3.711896e+06   -3.472164e+00    3.711899e+06    0.000000e+00    1.147224e+05    0.000000e+00    2.409188e+00    3.772531e+01   -5.722774e-14
   1.577182e-04    3.679070e+06   -4.718836e+00    3.679074e+06    0.000000e+00    1.140450e+05    0.000000e+00    2.409188e+00    3.772512e+01   -5.722631e-14
   1.586542e-04    3.646536e+06   -3.225193e+00    3.646540e+06    0.000000e+00    1.133717e+05    0.000000e+00    2.409188e+00    3.772492e+01   -5.722488e-14
   1.595958e-04    3.614288e+06   -4.426327e+00    3.614292e+06    0.000000e+00    1.127023e+05    0.000000e+00    2.409188e+00    3.772472e+01   -5.722343e-14
   1.605430e-04    3.582327e+06   -3.613763e+00    3.582330e+06    0.000000e+00    1.120369e+05    0.000000e+00    2.409188e+00    3.772452e+01   -5.722198e-14
   1.614958e-04    3.550647e+06   -3.514456e+00    3.550651e+06    0.000000e+00    1.113754e+05    0.000000e+00    2.409188e+00    3.772432e+01   -5.722052e-14
   1.624543e-04    3.519247e+06   -4.599870e+00    3.519251e+06    0.000000e+00    1.107178e+05    0.000000e+00    2.409188e+00    3.772411e+01   -5.721905e-14
   1.634185e-04    3.488126e+06   -3.243650e+00    3.488129e+06    0.000000e+00    1.100641e+05    0.000000e+00    2.409188e+00    3.772391e+01   -5.721758e-14
   1.643883e-04    3.457278e+06   -4.460375e+00    3.457282e+06    0.000000e+00    1.094142e+05    0.000000e+00    2.409188e+00    3.772370e+01   -5.721609e-14
   1.653640e-04    3.426704e+06   -3.580071e+00    3.426708e+06    0.000000e+00    1.087682e+05    0.000000e+00    2.409188e+00    3.772350e+01   -5.721460e-14
   1.663454e-04    3.396400e+06   -3.553654e+00    3.396404e+06    0.000000e+00    1.081260e+05    0.000000e+00    2.409188e+00    3.772329e+01   -5.721309e-14
   1.673327e-04    3.366363e+06   -4.491010e+00    3.366368e+06    0.000000e+00    1.074876e+05    0.000000e+00    2.409188e+00    3.772308e+01   -5.721158e-14
   1.683258e-04    3.336594e+06   -3.263214e+00    3.336597e+06    0.000000e+00    1.068529e+05    0.000000e+00    2.409188e+00    3.772287e+01   -5.721006e-14
   1.693248e-04    3.307085e+06   -4.490977e+00    3.307089e+06    0.000000e+00    1.062220e+05    0.000000e+00    2.409188e+00    3.772266e+01   -5.720853e-14
   1.703297e-04    3.277839e+06   -3.549503e+00    3.277843e+06    0.000000e+00    1.055949e+05    0.000000e+00    2.409188e+00    3.772245e+01   -5.720699e-14
   1.713406e-04    3.248851e+06   -3.593296e+00    3.248855e+06    0.000000e+00    1.049714e+05    0.000000e+00    2.409188e+00    3.772223e+01   -5.720544e-14
   1.723575e-04    3.220118e+06   -4.388046e+00    3.220123e+06    0.000000e+00    1.043516e+05    0.000000e+00    2.409188e+00    3.772202e+01   -5.720388e-14
   1.733804e-04    3.191641e+06   -3.279162e+00    3.191645e+06    0.000000e+00    1.037354e+05    0.000000e+00    2.409188e+00    3.772180e+01   -5.720231e-14
   1.744094e-04    3.163414e+06   -4.518424e+00    3.163418e+06    0.000000e+00    1.031229e+05    0.000000e+00    2.409188e+00    3.772158e+01   -5.720074e-14
   1.754445e-04    3.135438e+06   -3.520339e+00    3.135442e+06    0.000000e+00    1.025140e+05    0.000000e+00    2.409188e+00    3.772137e+01   -5.719915e-14
   1.764858e-04    3.107708e+06   -3.623567e+00    3.107712e+06    0.000000e+00    1.019087e+05    0.000000e+00    2.409188e+00    3.772114e+01   -5.719756e-14
   1.775332e-04    3.080223e+06   -4.290386e+00    3.080228e+06    0.000000e+00    1.013069e+05    0.000000e+00    2.409188e+00    3.772092e+01   -5.719595e-14
   1.785869e-04    3.052983e+06   -3.293562e+00    3.052986e+06    0.000000e+00    1.007088e+05    0.000000e+00    2.409188e+00    3.772070e+01   -5.719434e-14
   1.796468e-04    3.025981e+06   -4.542909e+00    3.025986e+06    0.000000e+00    1.001141e+05    0.000000e+00    2.409188e+00    3.772048e+01   -5.719271e-14
   1.807130e-04    2.999220e+06   -3.492485e+00    2.999224e+06    0.000000e+00    9.952295e+04    0.000000e+00    2.409188e+00    3.772025e+01   -5.719108e-14
   1.817855e-04    2.972695e+06   -3.654562e+00    2.972698e+06    0.000000e+00    9.893529e+04    0.000000e+00    2.409188e+00    3.772002e+01   -5.718944e-14
   1.828644e-04    2.946403e+06   -4.201376e+00    2.946407e+06    0.000000e+00    9.835109e+04    0.000000e+00    2.409188e+00    3.771979e+01   -5.718778e-14
   1.839497e-04    2.920345e+06   -3.305119e+00    2.920349e+06    0.000000e+00    9.777034e+04    0.000000e+00    2.409188e+00    3.771957e+01   -5.718612e-14
   1.850414e-04    2.894516e+06   -4.568529e+00    2.894520e+06    0.000000e+00    9.719302e+04    0.000000e+00    2.409188e+00    3.771933e+01   -5.718445e-14
   1.861396e-04    2.868917e+06   -3.466046e+00    2.868921e+06    0.000000e+00    9.661911e+04    0.000000e+00    2.409188e+00    3.771910e+01   -5.718277e-14
   1.872443e-04    2.843543e+06   -3.687129e+00    2.843547e+06    0.000000e+00    9.604858e+04    0.000000e+00    2.409188e+00    3.771887e+01   -5.718107e-14
   1.883556e-04    2.818394e+06   -4.109832e+00    2.818398e+06    0.000000e+00    9.548142e+04    0.000000e+00    2.409188e+00    3.771863e+01   -5.717937e-14
   1.894735e-04    2.793467e+06   -3.317624e+00    2.793471e+06    0.000000e+00    9.491760e+04    0.000000e+00    2.409188e+00    3.771840e+01   -5.717766e-14
   1.905980e-04    2.768759e+06   -4.587430e+00    2.768764e+06    0.000000e+00    9.435711e+04    0.000000e+00    2.409188e+00    3.771816e+01   -5.717594e-14
   1.917292e-04    2.744272e+06   -3.443411e+00    2.744276e+06    0.000000e+00    9.379992e+04    0.000000e+00    2.409188e+00    3.771792e+01   -5.717421e-14
   1.928671e-04    2.720000e+06   -3.709338e+00    2.720004e+06    0.000000e+00    9.324603e+04    0.000000e+00    2.409188e+00    3.771768e+01   -5.717246e-14
   1.940117e-04    2.695942e+06   -4.029725e+00    2.695947e+06    0.000000e+00    9.269540e+04    0.000000e+00    2.409188e+00    3.771744e+01   -5.717071e-14
   1.951632e-04    2.672099e+06   -3.329100e+00    2.672102e+06    0.000000e+00    9.214802e+04    0.000000e+00    2.409188e+00    3.771719e+01   -5.716895e-14
   1.963215e-04    2.648463e+06   -4.603842e+00    2.648468e+06    0.000000e+00    9.160387e+04    0.000000e+00    2.409188e+00    3.771695e+01   -5.716717e-14
   1.974866e-04    2.625040e+06   -3.418258e+00    2.625043e+06    0.000000e+00    9.106293e+04    0.000000e+00    2.409188e+00    3.771670e+01   -5.716539e-14
   1.986587e-04    2.601822e+06   -3.733351e+00    2.601825e+06    0.000000e+00    9.052518e+04    0.000000e+00    2.409188e+00    3.771645e+01   -5.716359e-14
   1.998377e-04    2.578809e+06   -3.950485e+00    2.578813e+06    0.000000e+00    8.999061e+04    0.000000e+00    2.409188e+00    3.771620e+01   -5.716179e-14
   2.010238e-04    2.556000e+06   -3.339612e+00    2.556003e+06    0.000000e+00    8.945919e+04    0.000000e+00    2.409188e+00    3.771595e+01   -5.715997e-14
   2.022168e-04    2.533391e+06   -4.614392e+00    2.533396e+06    0.000000e+00    8.893090e+04    0.000000e+00    2.409188e+00    3.771570e+01   -5.715814e-14
   2.034170e-04    2.510985e+06   -3.394006e+00    2.510988e+06    0.000000e+00    8.840573e+04    0.000000e+00    2.409188e+00    3.771545e+01   -5.715631e-14
   2.046242e-04    2.488775e+06   -3.755296e+00    2.488778e+06    0.000000e+00    8.788366e+04    0.000000e+00    2.409188e+00    3.771519e+01   -5.715446e-14
