# All units in Hartree [AU] if not specified
# Convergence: Err(φ)=3.932e-11, Err(n_e)=8.828e-11, Err(IET)=9.424e-13, Q_net=5.485e-07
# {"name":"Ar", "Z":18, "Zstar":0.7684741594156499, "A":39.948,  "μ[AU]": -6.8620928718e-02, "Te[AU]": 2.888e-02, "Ti[AU]": 2.888e-02, "rs[AU]": 1.372e+01 }
   r[AU]           n[AU]           nf[AU]          nb[AU]          n_ion[AU]       φtot[AU]        δVxc/δρ[Au]     U_ei[AU]        U_ii[AU]        g_ii            
   1.000000e-04    7.290094e+06   -3.415709e+00    7.290097e+06    0.000000e+00    1.799173e+05    0.000000e+00    1.607422e+00    2.479947e+01   -1.118702e-13
   1.005935e-04    7.225647e+06    3.431361e-01    7.225646e+06    0.000000e+00    1.788553e+05    0.000000e+00   -2.519357e+00    2.479939e+01   -1.118685e-13
   1.011905e-04    7.161765e+06   -1.425283e-01    7.161765e+06    0.000000e+00    1.777996e+05    0.000000e+00    1.607422e+00    2.479931e+01   -1.118667e-13
   1.017911e-04    7.098446e+06   -2.253179e+00    7.098449e+06    0.000000e+00    1.767501e+05    0.000000e+00    1.607422e+00    2.479922e+01   -1.118649e-13
   1.023952e-04    7.035692e+06    5.589315e-01    7.035692e+06    0.000000e+00    1.757068e+05    0.000000e+00   -3.421176e+00    2.479914e+01   -1.118631e-13
   1.030029e-04    6.973488e+06   -1.019449e+00    6.973489e+06    0.000000e+00    1.746696e+05    0.000000e+00    1.607422e+00    2.479906e+01   -1.118613e-13
   1.036142e-04    6.911835e+06   -1.153691e+00    6.911837e+06    0.000000e+00    1.736386e+05    0.000000e+00    1.607422e+00    2.479897e+01   -1.118594e-13
   1.042292e-04    6.850729e+06    4.939081e-01    6.850729e+06    0.000000e+00    1.726137e+05    0.000000e+00   -3.164155e+00    2.479889e+01   -1.118576e-13
   1.048478e-04    6.790159e+06   -2.127126e+00    6.790161e+06    0.000000e+00    1.715948e+05    0.000000e+00    1.607422e+00    2.479880e+01   -1.118557e-13
   1.054700e-04    6.730129e+06   -3.796552e-01    6.730129e+06    0.000000e+00    1.705819e+05    0.000000e+00    1.607422e+00    2.479872e+01   -1.118539e-13
   1.060960e-04    6.670627e+06    1.563453e-01    6.670627e+06    0.000000e+00    1.695750e+05    0.000000e+00   -1.562545e+00    2.479863e+01   -1.118520e-13
   1.067257e-04    6.611648e+06   -3.455498e+00    6.611651e+06    0.000000e+00    1.685740e+05    0.000000e+00    1.607422e+00    2.479854e+01   -1.118501e-13
   1.073591e-04    6.553197e+06    8.687054e-02    6.553197e+06    0.000000e+00    1.675790e+05    0.000000e+00   -1.112115e+00    2.479845e+01   -1.118482e-13
   1.079962e-04    6.495258e+06   -4.313560e-01    6.495259e+06    0.000000e+00    1.665898e+05    0.000000e+00    1.607422e+00    2.479837e+01   -1.118463e-13
   1.086372e-04    6.437831e+06   -2.209407e+00    6.437833e+06    0.000000e+00    1.656064e+05    0.000000e+00    1.607422e+00    2.479828e+01   -1.118444e-13
   1.092819e-04    6.380915e+06    2.696200e-01    6.380915e+06    0.000000e+00    1.646289e+05    0.000000e+00   -2.171090e+00    2.479819e+01   -1.118425e-13
   1.099305e-04    6.324498e+06   -1.241729e+00    6.324499e+06    0.000000e+00    1.636571e+05    0.000000e+00    1.607422e+00    2.479810e+01   -1.118405e-13
   1.105830e-04    6.268582e+06   -1.229284e+00    6.268583e+06    0.000000e+00    1.626910e+05    0.000000e+00    1.607422e+00    2.479801e+01   -1.118386e-13
   1.112393e-04    6.213161e+06    1.891553e-01    6.213160e+06    0.000000e+00    1.617307e+05    0.000000e+00   -1.750659e+00    2.479792e+01   -1.118366e-13
   1.118995e-04    6.158226e+06   -2.272066e+00    6.158228e+06    0.000000e+00    1.607760e+05    0.000000e+00    1.607422e+00    2.479783e+01   -1.118346e-13
   1.125636e-04    6.103780e+06   -5.503826e-01    6.103781e+06    0.000000e+00    1.598269e+05    0.000000e+00    1.607422e+00    2.479774e+01   -1.118326e-13
   1.132316e-04    6.049815e+06   -1.344601e-01    6.049815e+06    0.000000e+00    1.588835e+05    0.000000e+00    1.607422e+00    2.479764e+01   -1.118306e-13
   1.139037e-04    5.996323e+06   -3.325660e+00    5.996326e+06    0.000000e+00    1.579456e+05    0.000000e+00    1.607422e+00    2.479755e+01   -1.118286e-13
   1.145797e-04    5.943310e+06   -1.383683e-01    5.943310e+06    0.000000e+00    1.570132e+05    0.000000e+00    1.607422e+00    2.479746e+01   -1.118266e-13
   1.152597e-04    5.890762e+06   -6.850694e-01    5.890762e+06    0.000000e+00    1.560864e+05    0.000000e+00    1.607422e+00    2.479736e+01   -1.118246e-13
   1.159437e-04    5.838677e+06   -2.161763e+00    5.838679e+06    0.000000e+00    1.551650e+05    0.000000e+00    1.607422e+00    2.479727e+01   -1.118225e-13
   1.166319e-04    5.787056e+06    9.765003e-03    5.787056e+06    0.000000e+00    1.542490e+05    0.000000e+00   -3.895696e-01    2.479717e+01   -1.118205e-13
   1.173241e-04    5.735889e+06   -1.439438e+00    5.735890e+06    0.000000e+00    1.533385e+05    0.000000e+00    1.607422e+00    2.479708e+01   -1.118184e-13
   1.180204e-04    5.685174e+06   -1.288688e+00    5.685176e+06    0.000000e+00    1.524333e+05    0.000000e+00    1.607422e+00    2.479698e+01   -1.118163e-13
   1.187208e-04    5.634910e+06   -8.075600e-02    5.634910e+06    0.000000e+00    1.515335e+05    0.000000e+00    1.607422e+00    2.479688e+01   -1.118142e-13
   1.194254e-04    5.585085e+06   -2.390535e+00    5.585088e+06    0.000000e+00    1.506390e+05    0.000000e+00    1.607422e+00    2.479679e+01   -1.118121e-13
   1.201342e-04    5.535706e+06   -6.886551e-01    5.535706e+06    0.000000e+00    1.497497e+05    0.000000e+00    1.607422e+00    2.479669e+01   -1.118100e-13
   1.208472e-04    5.486761e+06   -3.921696e-01    5.486761e+06    0.000000e+00    1.488657e+05    0.000000e+00    1.607422e+00    2.479659e+01   -1.118078e-13
   1.215644e-04    5.438246e+06   -3.157047e+00    5.438249e+06    0.000000e+00    1.479869e+05    0.000000e+00    1.607422e+00    2.479649e+01   -1.118057e-13
   1.222859e-04    5.390165e+06   -3.391138e-01    5.390166e+06    0.000000e+00    1.471133e+05    0.000000e+00    1.607422e+00    2.479639e+01   -1.118035e-13
   1.230117e-04    5.342506e+06   -9.075589e-01    5.342507e+06    0.000000e+00    1.462449e+05    0.000000e+00    1.607422e+00    2.479629e+01   -1.118014e-13
   1.237417e-04    5.295267e+06   -2.112269e+00    5.295270e+06    0.000000e+00    1.453816e+05    0.000000e+00    1.607422e+00    2.479619e+01   -1.117992e-13
   1.244761e-04    5.248449e+06   -2.196598e-01    5.248450e+06    0.000000e+00    1.445234e+05    0.000000e+00    1.607422e+00    2.479609e+01   -1.117970e-13
   1.252149e-04    5.202042e+06   -1.611744e+00    5.202044e+06    0.000000e+00    1.436702e+05    0.000000e+00    1.607422e+00    2.479599e+01   -1.117948e-13
   1.259580e-04    5.156046e+06   -1.338985e+00    5.156048e+06    0.000000e+00    1.428221e+05    0.000000e+00    1.607422e+00    2.479588e+01   -1.117925e-13
   1.267056e-04    5.110458e+06   -3.239235e-01    5.110458e+06    0.000000e+00    1.419789e+05    0.000000e+00    1.607422e+00    2.479578e+01   -1.117903e-13
   1.274576e-04    5.065270e+06   -2.486535e+00    5.065272e+06    0.000000e+00    1.411408e+05    0.000000e+00    1.607422e+00    2.479568e+01   -1.117881e-13
   1.282140e-04    5.020484e+06   -8.092673e-01    5.020485e+06    0.000000e+00    1.403076e+05    0.000000e+00    1.607422e+00    2.479557e+01   -1.117858e-13
   1.289750e-04    4.976093e+06   -6.205390e-01    4.976094e+06    0.000000e+00    1.394793e+05    0.000000e+00    1.607422e+00    2.479547e+01   -1.117835e-13
   1.297404e-04    4.932092e+06   -2.989986e+00    4.932095e+06    0.000000e+00    1.386559e+05    0.000000e+00    1.607422e+00    2.479536e+01   -1.117812e-13
   1.305104e-04    4.888485e+06   -5.097403e-01    4.888485e+06    0.000000e+00    1.378373e+05    0.000000e+00    1.607422e+00    2.479525e+01   -1.117789e-13
   1.312850e-04    4.845260e+06   -1.106107e+00    4.845261e+06    0.000000e+00    1.370236e+05    0.000000e+00    1.607422e+00    2.479515e+01   -1.117766e-13
   1.320642e-04    4.802416e+06   -2.066636e+00    4.802418e+06    0.000000e+00    1.362147e+05    0.000000e+00    1.607422e+00    2.479504e+01   -1.117743e-13
   1.328480e-04    4.759954e+06   -4.221459e-01    4.759954e+06    0.000000e+00    1.354106e+05    0.000000e+00    1.607422e+00    2.479493e+01   -1.117719e-13
   1.336364e-04    4.717864e+06   -1.763093e+00    4.717866e+06    0.000000e+00    1.346112e+05    0.000000e+00    1.607422e+00    2.479482e+01   -1.117696e-13
   1.344295e-04    4.676148e+06   -1.377362e+00    4.676150e+06    0.000000e+00    1.338165e+05    0.000000e+00    1.607422e+00    2.479471e+01   -1.117672e-13
   1.352274e-04    4.634801e+06   -5.313875e-01    4.634802e+06    0.000000e+00    1.330265e+05    0.000000e+00    1.607422e+00    2.479460e+01   -1.117648e-13
   1.360299e-04    4.593817e+06   -2.574483e+00    4.593820e+06    0.000000e+00    1.322412e+05    0.000000e+00    1.607422e+00    2.479449e+01   -1.117624e-13
   1.368372e-04    4.553199e+06   -9.171818e-01    4.553200e+06    0.000000e+00    1.314605e+05    0.000000e+00    1.607422e+00    2.479438e+01   -1.117600e-13
   1.376494e-04    4.512938e+06   -8.244563e-01    4.512939e+06    0.000000e+00    1.306844e+05    0.000000e+00    1.607422e+00    2.479427e+01   -1.117576e-13
   1.384663e-04    4.473031e+06   -2.832703e+00    4.473034e+06    0.000000e+00    1.299128e+05    0.000000e+00    1.607422e+00    2.479415e+01   -1.117551e-13
   1.392881e-04    4.433480e+06   -6.617406e-01    4.433481e+06    0.000000e+00    1.291459e+05    0.000000e+00    1.607422e+00    2.479404e+01   -1.117527e-13
   1.401148e-04    4.394277e+06   -1.287513e+00    4.394278e+06    0.000000e+00    1.283835e+05    0.000000e+00    1.607422e+00    2.479393e+01   -1.117502e-13
   1.409463e-04    4.355420e+06   -2.007619e+00    4.355422e+06    0.000000e+00    1.276255e+05    0.000000e+00    1.607422e+00    2.479381e+01   -1.117477e-13
   1.417828e-04    4.316908e+06   -6.008866e-01    4.316909e+06    0.000000e+00    1.268720e+05    0.000000e+00    1.607422e+00    2.479370e+01   -1.117452e-13
   1.426243e-04    4.278735e+06   -1.895459e+00    4.278737e+06    0.000000e+00    1.261230e+05    0.000000e+00    1.607422e+00    2.479358e+01   -1.117427e-13
   1.434708e-04    4.240900e+06   -1.407119e+00    4.240902e+06    0.000000e+00    1.253784e+05    0.000000e+00    1.607422e+00    2.479346e+01   -1.117401e-13
   1.443223e-04    4.203400e+06   -7.182937e-01    4.203401e+06    0.000000e+00    1.246382e+05    0.000000e+00    1.607422e+00    2.479335e+01   -1.117376e-13
   1.451788e-04    4.166229e+06   -2.649868e+00    4.166232e+06    0.000000e+00    1.239024e+05    0.000000e+00    1.607422e+00    2.479323e+01   -1.117350e-13
   1.460404e-04    4.129390e+06   -1.006261e+00    4.129391e+06    0.000000e+00    1.231709e+05    0.000000e+00    1.607422e+00    2.479311e+01   -1.117325e-13
   1.469072e-04    4.092875e+06   -1.000591e+00    4.092876e+06    0.000000e+00    1.224437e+05    0.000000e+00    1.607422e+00    2.479299e+01   -1.117299e-13
   1.477791e-04    4.056681e+06   -2.679747e+00    4.056684e+06    0.000000e+00    1.217208e+05    0.000000e+00    1.607422e+00    2.479287e+01   -1.117272e-13
   1.486561e-04    4.020810e+06   -7.948726e-01    4.020811e+06    0.000000e+00    1.210022e+05    0.000000e+00    1.607422e+00    2.479275e+01   -1.117246e-13
   1.495384e-04    3.985255e+06   -1.436552e+00    3.985256e+06    0.000000e+00    1.202878e+05    0.000000e+00    1.607422e+00    2.479262e+01   -1.117220e-13
   1.504259e-04    3.950013e+06   -1.960398e+00    3.950015e+06    0.000000e+00    1.195776e+05    0.000000e+00    1.607422e+00    2.479250e+01   -1.117193e-13
   1.513187e-04    3.915085e+06   -7.609780e-01    3.915085e+06    0.000000e+00    1.188716e+05    0.000000e+00    1.607422e+00    2.479238e+01   -1.117167e-13
   1.522167e-04    3.880463e+06   -2.010134e+00    3.880465e+06    0.000000e+00    1.181698e+05    0.000000e+00    1.607422e+00    2.479225e+01   -1.117140e-13
   1.531201e-04    3.846148e+06   -1.428180e+00    3.846150e+06    0.000000e+00    1.174721e+05    0.000000e+00    1.607422e+00    2.479213e+01   -1.117113e-13
   1.540289e-04    3.812137e+06   -8.832526e-01    3.812138e+06    0.000000e+00    1.167786e+05    0.000000e+00    1.607422e+00    2.479200e+01   -1.117086e-13
   1.549430e-04    3.778425e+06   -2.718750e+00    3.778427e+06    0.000000e+00    1.160891e+05    0.000000e+00    1.607422e+00    2.479188e+01   -1.117058e-13
   1.558626e-04    3.745013e+06   -1.086289e+00    3.745014e+06    0.000000e+00    1.154037e+05    0.000000e+00    1.607422e+00    2.479175e+01   -1.117031e-13
   1.567877e-04    3.711896e+06   -1.161611e+00    3.711897e+06    0.000000e+00    1.147223e+05    0.000000e+00    1.607422e+00    2.479162e+01   -1.117003e-13
   1.577182e-04    3.679069e+06   -2.542989e+00    3.679072e+06    0.000000e+00    1.140450e+05    0.000000e+00    1.607422e+00    2.479149e+01   -1.116975e-13
   1.586542e-04    3.646536e+06   -9.114557e-01    3.646537e+06    0.000000e+00    1.133716e+05    0.000000e+00    1.607422e+00    2.479136e+01   -1.116947e-13
   1.595958e-04    3.614289e+06   -1.570575e+00    3.614290e+06    0.000000e+00    1.127023e+05    0.000000e+00    1.607422e+00    2.479123e+01   -1.116919e-13
   1.605430e-04    3.582326e+06   -1.904416e+00    3.582328e+06    0.000000e+00    1.120369e+05    0.000000e+00    1.607422e+00    2.479110e+01   -1.116891e-13
   1.614958e-04    3.550648e+06   -8.966893e-01    3.550648e+06    0.000000e+00    1.113754e+05    0.000000e+00    1.607422e+00    2.479097e+01   -1.116862e-13
   1.624543e-04    3.519247e+06   -2.110894e+00    3.519249e+06    0.000000e+00    1.107178e+05    0.000000e+00    1.607422e+00    2.479084e+01   -1.116834e-13
   1.634185e-04    3.488125e+06   -1.444873e+00    3.488127e+06    0.000000e+00    1.100641e+05    0.000000e+00    1.607422e+00    2.479071e+01   -1.116805e-13
   1.643883e-04    3.457279e+06   -1.030603e+00    3.457280e+06    0.000000e+00    1.094142e+05    0.000000e+00    1.607422e+00    2.479057e+01   -1.116776e-13
   1.653640e-04    3.426703e+06   -2.766815e+00    3.426706e+06    0.000000e+00    1.087682e+05    0.000000e+00    1.607422e+00    2.479044e+01   -1.116746e-13
   1.663454e-04    3.396400e+06   -1.151775e+00    3.396402e+06    0.000000e+00    1.081260e+05    0.000000e+00    1.607422e+00    2.479030e+01   -1.116717e-13
   1.673327e-04    3.366364e+06   -1.296341e+00    3.366365e+06    0.000000e+00    1.074876e+05    0.000000e+00    1.607422e+00    2.479016e+01   -1.116688e-13
   1.683258e-04    3.336592e+06   -2.419277e+00    3.336595e+06    0.000000e+00    1.068529e+05    0.000000e+00    1.607422e+00    2.479003e+01   -1.116658e-13
   1.693248e-04    3.307086e+06   -1.013437e+00    3.307087e+06    0.000000e+00    1.062220e+05    0.000000e+00    1.607422e+00    2.478989e+01   -1.116628e-13
   1.703297e-04    3.277839e+06   -1.692798e+00    3.277841e+06    0.000000e+00    1.055948e+05    0.000000e+00    1.607422e+00    2.478975e+01   -1.116598e-13
   1.713406e-04    3.248851e+06   -1.854719e+00    3.248852e+06    0.000000e+00    1.049713e+05    0.000000e+00    1.607422e+00    2.478961e+01   -1.116568e-13
   1.723575e-04    3.220119e+06   -1.018629e+00    3.220120e+06    0.000000e+00    1.043515e+05    0.000000e+00    1.607422e+00    2.478947e+01   -1.116537e-13
   1.733804e-04    3.191640e+06   -2.197064e+00    3.191642e+06    0.000000e+00    1.037354e+05    0.000000e+00    1.607422e+00    2.478933e+01   -1.116507e-13
   1.744094e-04    3.163415e+06   -1.457824e+00    3.163416e+06    0.000000e+00    1.031228e+05    0.000000e+00    1.607422e+00    2.478919e+01   -1.116476e-13
   1.754445e-04    3.135438e+06   -1.158492e+00    3.135439e+06    0.000000e+00    1.025139e+05    0.000000e+00    1.607422e+00    2.478904e+01   -1.116445e-13
   1.764858e-04    3.107707e+06   -2.810779e+00    3.107710e+06    0.000000e+00    1.019086e+05    0.000000e+00    1.607422e+00    2.478890e+01   -1.116414e-13
   1.775332e-04    3.080224e+06   -1.212352e+00    3.080226e+06    0.000000e+00    1.013069e+05    0.000000e+00    1.607422e+00    2.478875e+01   -1.116383e-13
   1.785869e-04    3.052983e+06   -1.419207e+00    3.052984e+06    0.000000e+00    1.007087e+05    0.000000e+00    1.607422e+00    2.478861e+01   -1.116351e-13
   1.796468e-04    3.025981e+06   -2.296334e+00    3.025983e+06    0.000000e+00    1.001141e+05    0.000000e+00    1.607422e+00    2.478846e+01   -1.116319e-13
   1.807130e-04    2.999220e+06   -1.102618e+00    2.999222e+06    0.000000e+00    9.952290e+04    0.000000e+00    1.607422e+00    2.478832e+01   -1.116287e-13
   1.817855e-04    2.972694e+06   -1.796096e+00    2.972696e+06    0.000000e+00    9.893524e+04    0.000000e+00    1.607422e+00    2.478817e+01   -1.116255e-13
   1.828644e-04    2.946403e+06   -1.807065e+00    2.946405e+06    0.000000e+00    9.835105e+04    0.000000e+00    1.607422e+00    2.478802e+01   -1.116223e-13
   1.839497e-04    2.920345e+06   -1.125857e+00    2.920347e+06    0.000000e+00    9.777030e+04    0.000000e+00    1.607422e+00    2.478787e+01   -1.116191e-13
   1.850414e-04    2.894516e+06   -2.275432e+00    2.894518e+06    0.000000e+00    9.719298e+04    0.000000e+00    1.607422e+00    2.478772e+01   -1.116158e-13
   1.861396e-04    2.868917e+06   -1.464694e+00    2.868919e+06    0.000000e+00    9.661906e+04    0.000000e+00    1.607422e+00    2.478757e+01   -1.116125e-13
   1.872443e-04    2.843544e+06   -1.269722e+00    2.843545e+06    0.000000e+00    9.604853e+04    0.000000e+00    1.607422e+00    2.478741e+01   -1.116092e-13
   1.883556e-04    2.818393e+06   -2.754845e+00    2.818396e+06    0.000000e+00    9.548137e+04    0.000000e+00    1.607422e+00    2.478726e+01   -1.116059e-13
   1.894735e-04    2.793467e+06   -1.259128e+00    2.793469e+06    0.000000e+00    9.491755e+04    0.000000e+00    1.607422e+00    2.478710e+01   -1.116026e-13
   1.905980e-04    2.768760e+06   -1.524948e+00    2.768762e+06    0.000000e+00    9.435706e+04    0.000000e+00    1.607422e+00    2.478695e+01   -1.115992e-13
   1.917292e-04    2.744271e+06   -2.186761e+00    2.744274e+06    0.000000e+00    9.379988e+04    0.000000e+00    1.607422e+00    2.478679e+01   -1.115958e-13
   1.928671e-04    2.720001e+06   -1.182506e+00    2.720002e+06    0.000000e+00    9.324598e+04    0.000000e+00    1.607422e+00    2.478664e+01   -1.115924e-13
   1.940117e-04    2.695943e+06   -1.886181e+00    2.695944e+06    0.000000e+00    9.269535e+04    0.000000e+00    1.607422e+00    2.478648e+01   -1.115890e-13
   1.951632e-04    2.672098e+06   -1.761731e+00    2.672100e+06    0.000000e+00    9.214797e+04    0.000000e+00    1.607422e+00    2.478632e+01   -1.115855e-13
   1.963215e-04    2.648465e+06   -1.221883e+00    2.648466e+06    0.000000e+00    9.160383e+04    0.000000e+00    1.607422e+00    2.478616e+01   -1.115821e-13
   1.974866e-04    2.625039e+06   -2.339150e+00    2.625041e+06    0.000000e+00    9.106289e+04    0.000000e+00    1.607422e+00    2.478600e+01   -1.115786e-13
   1.986587e-04    2.601822e+06   -1.469817e+00    2.601823e+06    0.000000e+00    9.052514e+04    0.000000e+00    1.607422e+00    2.478583e+01   -1.115751e-13
   1.998377e-04    2.578809e+06   -1.368997e+00    2.578811e+06    0.000000e+00    8.999056e+04    0.000000e+00    1.607422e+00    2.478567e+01   -1.115716e-13
   2.010238e-04    2.555999e+06   -2.582556e+00    2.556001e+06    0.000000e+00    8.945914e+04    0.000000e+00    1.607422e+00    2.478551e+01   -1.115680e-13
   2.022168e-04    2.533393e+06   -1.304124e+00    2.533394e+06    0.000000e+00    8.893086e+04    0.000000e+00    1.607422e+00    2.478534e+01   -1.115645e-13
   2.034170e-04    2.510984e+06   -1.621465e+00    2.510986e+06    0.000000e+00    8.840569e+04    0.000000e+00    1.607422e+00    2.478518e+01   -1.115609e-13
   2.046242e-04    2.488774e+06   -2.086429e+00    2.488776e+06    0.000000e+00    8.788362e+04    0.000000e+00    1.607422e+00    2.478501e+01   -1.115573e-13
