# All units in Hartree [AU] if not specified
# Convergence: Err(φ)=3.897e-11, Err(n_e)=8.190e-11, Err(IET)=9.829e-13, Q_net=5.378e-07
# {"name":"Ar", "Z":18, "Zstar":0.6622374732512242, "A":39.948,  "μ[AU]": -4.5364776042e-02, "Te[AU]": 2.158e-02, "Ti[AU]": 2.158e-02, "rs[AU]": 1.372e+01 }
   r[AU]           n[AU]           nf[AU]          nb[AU]          n_ion[AU]       φtot[AU]        δVxc/δρ[Au]     U_ei[AU]        U_ii[AU]        g_ii            
   1.000000e-04    7.290096e+06    1.120486e-01    7.290096e+06    0.000000e+00    1.799173e+05    0.000000e+00   -1.250350e+00    1.845416e+01   -1.441090e-13
   1.005935e-04    7.225647e+06    2.205638e+00    7.225645e+06    0.000000e+00    1.788553e+05    0.000000e+00   -8.247174e+00    1.845410e+01   -1.441067e-13
   1.011905e-04    7.161764e+06    3.473423e-01    7.161764e+06    0.000000e+00    1.777996e+05    0.000000e+00   -2.503022e+00    1.845404e+01   -1.441044e-13
   1.017911e-04    7.098447e+06    1.905434e-01    7.098447e+06    0.000000e+00    1.767501e+05    0.000000e+00   -1.722840e+00    1.845398e+01   -1.441021e-13
   1.023952e-04    7.035692e+06    2.102005e+00    7.035690e+06    0.000000e+00    1.757068e+05    0.000000e+00   -7.991231e+00    1.845392e+01   -1.440998e-13
   1.030029e-04    6.973488e+06    1.672149e-01    6.973488e+06    0.000000e+00    1.746696e+05    0.000000e+00   -1.590681e+00    1.845385e+01   -1.440974e-13
   1.036142e-04    6.911835e+06    2.606100e-01    6.911835e+06    0.000000e+00    1.736386e+05    0.000000e+00   -2.090778e+00    1.845379e+01   -1.440951e-13
   1.042292e-04    6.850730e+06    1.997447e+00    6.850728e+06    0.000000e+00    1.726136e+05    0.000000e+00   -7.728667e+00    1.845373e+01   -1.440927e-13
   1.048478e-04    6.790160e+06   -9.585000e-03    6.790160e+06    0.000000e+00    1.715948e+05    0.000000e+00    1.183341e+00    1.845367e+01   -1.440903e-13
   1.054700e-04    6.730128e+06    3.130188e-01    6.730128e+06    0.000000e+00    1.705819e+05    0.000000e+00   -2.344456e+00    1.845360e+01   -1.440879e-13
   1.060960e-04    6.670628e+06    1.891935e+00    6.670626e+06    0.000000e+00    1.695750e+05    0.000000e+00   -7.458750e+00    1.845354e+01   -1.440855e-13
   1.067257e-04    6.611650e+06   -1.904825e-01    6.611650e+06    0.000000e+00    1.685740e+05    0.000000e+00    1.183341e+00    1.845347e+01   -1.440831e-13
   1.073591e-04    6.553196e+06    3.693211e-01    6.553196e+06    0.000000e+00    1.675789e+05    0.000000e+00   -2.601757e+00    1.845341e+01   -1.440806e-13
   1.079962e-04    6.495259e+06    1.780971e+00    6.495258e+06    0.000000e+00    1.665897e+05    0.000000e+00   -7.169572e+00    1.845334e+01   -1.440782e-13
   1.086372e-04    6.437831e+06   -3.516134e-01    6.437832e+06    0.000000e+00    1.656064e+05    0.000000e+00    1.183341e+00    1.845328e+01   -1.440757e-13
   1.092819e-04    6.380914e+06    4.220799e-01    6.380913e+06    0.000000e+00    1.646288e+05    0.000000e+00   -2.831109e+00    1.845321e+01   -1.440732e-13
   1.099305e-04    6.324500e+06    1.679196e+00    6.324498e+06    0.000000e+00    1.636570e+05    0.000000e+00   -6.899086e+00    1.845315e+01   -1.440707e-13
   1.105830e-04    6.268581e+06   -5.250761e-01    6.268582e+06    0.000000e+00    1.626910e+05    0.000000e+00    1.183341e+00    1.845308e+01   -1.440682e-13
   1.112393e-04    6.213160e+06    4.643262e-01    6.213159e+06    0.000000e+00    1.617306e+05    0.000000e+00   -3.007911e+00    1.845301e+01   -1.440657e-13
   1.118995e-04    6.158228e+06    1.572478e+00    6.158227e+06    0.000000e+00    1.607760e+05    0.000000e+00   -6.609520e+00    1.845294e+01   -1.440631e-13
   1.125636e-04    6.103779e+06   -6.790168e-01    6.103779e+06    0.000000e+00    1.598269e+05    0.000000e+00    1.183341e+00    1.845288e+01   -1.440606e-13
   1.132316e-04    6.049814e+06    4.961452e-01    6.049814e+06    0.000000e+00    1.588835e+05    0.000000e+00   -3.137508e+00    1.845281e+01   -1.440580e-13
   1.139037e-04    5.996326e+06    1.465249e+00    5.996325e+06    0.000000e+00    1.579456e+05    0.000000e+00   -6.312107e+00    1.845274e+01   -1.440554e-13
   1.145797e-04    5.943308e+06   -8.375130e-01    5.943309e+06    0.000000e+00    1.570132e+05    0.000000e+00    1.183341e+00    1.845267e+01   -1.440528e-13
   1.152597e-04    5.890762e+06    5.238502e-01    5.890761e+06    0.000000e+00    1.560864e+05    0.000000e+00   -3.248232e+00    1.845260e+01   -1.440502e-13
   1.159437e-04    5.838679e+06    1.354672e+00    5.838678e+06    0.000000e+00    1.551650e+05    0.000000e+00   -5.997343e+00    1.845253e+01   -1.440475e-13
   1.166319e-04    5.787054e+06   -9.928585e-01    5.787055e+06    0.000000e+00    1.542490e+05    0.000000e+00    1.183341e+00    1.845246e+01   -1.440449e-13
   1.173241e-04    5.735889e+06    5.458390e-01    5.735889e+06    0.000000e+00    1.533385e+05    0.000000e+00   -3.334540e+00    1.845239e+01   -1.440422e-13
   1.180204e-04    5.685176e+06    1.246257e+00    5.685174e+06    0.000000e+00    1.524333e+05    0.000000e+00   -5.680562e+00    1.845232e+01   -1.440395e-13
   1.187208e-04    5.634907e+06   -1.143314e+00    5.634908e+06    0.000000e+00    1.515335e+05    0.000000e+00    1.183341e+00    1.845225e+01   -1.440368e-13
   1.194254e-04    5.585087e+06    5.643215e-01    5.585087e+06    0.000000e+00    1.506389e+05    0.000000e+00   -3.406257e+00    1.845217e+01   -1.440341e-13
   1.201342e-04    5.535706e+06    1.144190e+00    5.535705e+06    0.000000e+00    1.497497e+05    0.000000e+00   -5.373614e+00    1.845210e+01   -1.440314e-13
   1.208472e-04    5.486759e+06   -1.291062e+00    5.486760e+06    0.000000e+00    1.488657e+05    0.000000e+00    1.183341e+00    1.845203e+01   -1.440286e-13
   1.215644e-04    5.438248e+06    5.756571e-01    5.438248e+06    0.000000e+00    1.479869e+05    0.000000e+00   -3.450032e+00    1.845195e+01   -1.440259e-13
   1.222859e-04    5.390165e+06    1.037461e+00    5.390164e+06    0.000000e+00    1.471133e+05    0.000000e+00   -5.042816e+00    1.845188e+01   -1.440231e-13
   1.230117e-04    5.342504e+06   -1.435143e+00    5.342506e+06    0.000000e+00    1.462449e+05    0.000000e+00    1.183341e+00    1.845181e+01   -1.440203e-13
   1.237417e-04    5.295269e+06    5.820201e-01    5.295268e+06    0.000000e+00    1.453816e+05    0.000000e+00   -3.474229e+00    1.845173e+01   -1.440175e-13
   1.244761e-04    5.248449e+06    9.310727e-01    5.248448e+06    0.000000e+00    1.445233e+05    0.000000e+00   -4.701364e+00    1.845166e+01   -1.440146e-13
   1.252149e-04    5.202041e+06   -1.576267e+00    5.202042e+06    0.000000e+00    1.436702e+05    0.000000e+00    1.183341e+00    1.845158e+01   -1.440118e-13
   1.259580e-04    5.156047e+06    5.787542e-01    5.156047e+06    0.000000e+00    1.428220e+05    0.000000e+00   -3.461842e+00    1.845150e+01   -1.440089e-13
   1.267056e-04    5.110458e+06    8.251882e-01    5.110457e+06    0.000000e+00    1.419789e+05    0.000000e+00   -4.348575e+00    1.845143e+01   -1.440060e-13
   1.274576e-04    5.065269e+06   -1.720492e+00    5.065271e+06    0.000000e+00    1.411408e+05    0.000000e+00    1.183341e+00    1.845135e+01   -1.440031e-13
   1.282140e-04    5.020484e+06    5.765206e-01    5.020484e+06    0.000000e+00    1.403076e+05    0.000000e+00   -3.453331e+00    1.845127e+01   -1.440002e-13
   1.289750e-04    4.976093e+06    7.199331e-01    4.976093e+06    0.000000e+00    1.394793e+05    0.000000e+00   -3.982444e+00    1.845120e+01   -1.439973e-13
   1.297404e-04    4.932092e+06   -1.847276e+00    4.932094e+06    0.000000e+00    1.386559e+05    0.000000e+00    1.183341e+00    1.845112e+01   -1.439943e-13
   1.305104e-04    4.888484e+06    5.749567e-01    4.888484e+06    0.000000e+00    1.378373e+05    0.000000e+00   -3.447352e+00    1.845104e+01   -1.439914e-13
   1.312850e-04    4.845260e+06    6.128350e-01    4.845259e+06    0.000000e+00    1.370236e+05    0.000000e+00   -3.591128e+00    1.845096e+01   -1.439884e-13
   1.320642e-04    4.802415e+06   -1.977737e+00    4.802417e+06    0.000000e+00    1.362147e+05    0.000000e+00    1.183341e+00    1.845088e+01   -1.439854e-13
   1.328480e-04    4.759954e+06    5.646537e-01    4.759953e+06    0.000000e+00    1.354105e+05    0.000000e+00   -3.407553e+00    1.845080e+01   -1.439824e-13
   1.336364e-04    4.717865e+06    5.090373e-01    4.717865e+06    0.000000e+00    1.346111e+05    0.000000e+00   -3.189308e+00    1.845072e+01   -1.439793e-13
   1.344295e-04    4.676147e+06   -1.863730e+00    4.676148e+06    0.000000e+00    1.338165e+05    0.000000e+00    1.183341e+00    1.845064e+01   -1.439763e-13
   1.352274e-04    4.634801e+06    5.507208e-01    4.634801e+06    0.000000e+00    1.330265e+05    0.000000e+00   -3.353651e+00    1.845056e+01   -1.439732e-13
   1.360299e-04    4.593819e+06    4.080319e-01    4.593818e+06    0.000000e+00    1.322411e+05    0.000000e+00   -2.771034e+00    1.845047e+01   -1.439701e-13
   1.368372e-04    4.553197e+06   -1.727611e+00    4.553198e+06    0.000000e+00    1.314604e+05    0.000000e+00    1.183341e+00    1.845039e+01   -1.439670e-13
   1.376494e-04    4.512938e+06    5.295923e-01    4.512937e+06    0.000000e+00    1.306843e+05    0.000000e+00   -3.270779e+00    1.845031e+01   -1.439639e-13
   1.384663e-04    4.473033e+06    3.057865e-01    4.473032e+06    0.000000e+00    1.299128e+05    0.000000e+00   -2.310411e+00    1.845022e+01   -1.439607e-13
   1.392881e-04    4.433478e+06   -1.600346e+00    4.433480e+06    0.000000e+00    1.291459e+05    0.000000e+00    1.183341e+00    1.845014e+01   -1.439575e-13
   1.401148e-04    4.394278e+06    5.069788e-01    4.394277e+06    0.000000e+00    1.283834e+05    0.000000e+00   -3.181099e+00    1.845006e+01   -1.439544e-13
   1.409463e-04    4.355421e+06    1.998801e-01    4.355421e+06    0.000000e+00    1.276255e+05    0.000000e+00   -1.774244e+00    1.844997e+01   -1.439512e-13
   1.417828e-04    4.316906e+06   -1.481641e+00    4.316908e+06    0.000000e+00    1.268720e+05    0.000000e+00    1.183341e+00    1.844989e+01   -1.439479e-13
   1.426243e-04    4.278736e+06    4.862986e-01    4.278735e+06    0.000000e+00    1.261230e+05    0.000000e+00   -3.097733e+00    1.844980e+01   -1.439447e-13
   1.434708e-04    4.240900e+06    1.020878e-01    4.240900e+06    0.000000e+00    1.253784e+05    0.000000e+00   -1.183396e+00    1.844971e+01   -1.439414e-13
   1.443223e-04    4.203398e+06   -1.371221e+00    4.203400e+06    0.000000e+00    1.246382e+05    0.000000e+00    1.183341e+00    1.844963e+01   -1.439381e-13
   1.451788e-04    4.166231e+06    4.616771e-01    4.166231e+06    0.000000e+00    1.239023e+05    0.000000e+00   -2.997020e+00    1.844954e+01   -1.439348e-13
   1.460404e-04    4.129390e+06    4.414439e-03    4.129390e+06    0.000000e+00    1.231708e+05    0.000000e+00   -2.641185e-01    1.844945e+01   -1.439315e-13
   1.469072e-04    4.092874e+06   -1.273956e+00    4.092875e+06    0.000000e+00    1.224437e+05    0.000000e+00    1.183341e+00    1.844936e+01   -1.439282e-13
   1.477791e-04    4.056683e+06    4.354916e-01    4.056683e+06    0.000000e+00    1.217208e+05    0.000000e+00   -2.887856e+00    1.844927e+01   -1.439248e-13
   1.486561e-04    4.020810e+06   -9.405945e-02    4.020810e+06    0.000000e+00    1.210021e+05    0.000000e+00    1.183341e+00    1.844918e+01   -1.439214e-13
   1.495384e-04    3.985254e+06   -1.173400e+00    3.985255e+06    0.000000e+00    1.202877e+05    0.000000e+00    1.183341e+00    1.844909e+01   -1.439180e-13
   1.504259e-04    3.950014e+06    4.045463e-01    3.950014e+06    0.000000e+00    1.195776e+05    0.000000e+00   -2.756003e+00    1.844900e+01   -1.439146e-13
   1.513187e-04    3.915084e+06   -1.955225e-01    3.915084e+06    0.000000e+00    1.188716e+05    0.000000e+00    1.183341e+00    1.844891e+01   -1.439112e-13
   1.522167e-04    3.880462e+06   -1.085332e+00    3.880463e+06    0.000000e+00    1.181698e+05    0.000000e+00    1.183341e+00    1.844882e+01   -1.439077e-13
   1.531201e-04    3.846149e+06    3.714039e-01    3.846149e+06    0.000000e+00    1.174721e+05    0.000000e+00   -2.611015e+00    1.844873e+01   -1.439042e-13
   1.540289e-04    3.812137e+06   -2.917245e-01    3.812137e+06    0.000000e+00    1.167785e+05    0.000000e+00    1.183341e+00    1.844863e+01   -1.439007e-13
   1.549430e-04    3.778425e+06   -1.004695e+00    3.778426e+06    0.000000e+00    1.160891e+05    0.000000e+00    1.183341e+00    1.844854e+01   -1.438972e-13
   1.558626e-04    3.745014e+06    3.362884e-01    3.745013e+06    0.000000e+00    1.154037e+05    0.000000e+00   -2.452575e+00    1.844844e+01   -1.438937e-13
   1.567877e-04    3.711895e+06   -3.866188e-01    3.711896e+06    0.000000e+00    1.147223e+05    0.000000e+00    1.183341e+00    1.844835e+01   -1.438901e-13
   1.577182e-04    3.679070e+06   -9.346996e-01    3.679071e+06    0.000000e+00    1.140450e+05    0.000000e+00    1.183341e+00    1.844825e+01   -1.438865e-13
   1.586542e-04    3.646536e+06    2.968621e-01    3.646536e+06    0.000000e+00    1.133716e+05    0.000000e+00   -2.267944e+00    1.844816e+01   -1.438829e-13
   1.595958e-04    3.614289e+06   -4.762303e-01    3.614289e+06    0.000000e+00    1.127023e+05    0.000000e+00    1.183341e+00    1.844806e+01   -1.438793e-13
   1.605430e-04    3.582326e+06   -8.607660e-01    3.582327e+06    0.000000e+00    1.120368e+05    0.000000e+00    1.183341e+00    1.844797e+01   -1.438756e-13
   1.614958e-04    3.550648e+06    2.580764e-01    3.550647e+06    0.000000e+00    1.113753e+05    0.000000e+00   -2.078090e+00    1.844787e+01   -1.438720e-13
   1.624543e-04    3.519247e+06   -5.688028e-01    3.519248e+06    0.000000e+00    1.107177e+05    0.000000e+00    1.183341e+00    1.844777e+01   -1.438683e-13
   1.634185e-04    3.488125e+06   -7.982027e-01    3.488126e+06    0.000000e+00    1.100640e+05    0.000000e+00    1.183341e+00    1.844767e+01   -1.438646e-13
   1.643883e-04    3.457279e+06    2.201671e-01    3.457279e+06    0.000000e+00    1.094142e+05    0.000000e+00   -1.883147e+00    1.844757e+01   -1.438608e-13
   1.653640e-04    3.426704e+06   -6.600505e-01    3.426705e+06    0.000000e+00    1.087682e+05    0.000000e+00    1.183341e+00    1.844747e+01   -1.438571e-13
   1.663454e-04    3.396400e+06   -7.411627e-01    3.396401e+06    0.000000e+00    1.081260e+05    0.000000e+00    1.183341e+00    1.844737e+01   -1.438533e-13
   1.673327e-04    3.366365e+06    1.783506e-01    3.366364e+06    0.000000e+00    1.074875e+05    0.000000e+00   -1.654461e+00    1.844727e+01   -1.438495e-13
   1.683258e-04    3.336593e+06   -7.500868e-01    3.336594e+06    0.000000e+00    1.068529e+05    0.000000e+00    1.183341e+00    1.844717e+01   -1.438456e-13
   1.693248e-04    3.307086e+06   -6.902588e-01    3.307086e+06    0.000000e+00    1.062220e+05    0.000000e+00    1.183341e+00    1.844707e+01   -1.438418e-13
   1.703297e-04    3.277840e+06    1.328736e-01    3.277839e+06    0.000000e+00    1.055948e+05    0.000000e+00   -1.384303e+00    1.844696e+01   -1.438379e-13
   1.713406e-04    3.248850e+06   -8.394535e-01    3.248851e+06    0.000000e+00    1.049713e+05    0.000000e+00    1.183341e+00    1.844686e+01   -1.438340e-13
   1.723575e-04    3.220119e+06   -6.437067e-01    3.220119e+06    0.000000e+00    1.043515e+05    0.000000e+00    1.183341e+00    1.844676e+01   -1.438301e-13
   1.733804e-04    3.191641e+06    8.832817e-02    3.191641e+06    0.000000e+00    1.037353e+05    0.000000e+00   -1.087227e+00    1.844665e+01   -1.438262e-13
   1.744094e-04    3.163414e+06   -9.267407e-01    3.163415e+06    0.000000e+00    1.031228e+05    0.000000e+00    1.183341e+00    1.844655e+01   -1.438222e-13
   1.754445e-04    3.135438e+06   -6.010874e-01    3.135438e+06    0.000000e+00    1.025139e+05    0.000000e+00    1.183341e+00    1.844644e+01   -1.438182e-13
   1.764858e-04    3.107709e+06    4.519565e-02    3.107709e+06    0.000000e+00    1.019086e+05    0.000000e+00   -7.450350e-01    1.844633e+01   -1.438142e-13
   1.775332e-04    3.080223e+06   -1.012199e+00    3.080224e+06    0.000000e+00    1.013069e+05    0.000000e+00    1.183341e+00    1.844623e+01   -1.438102e-13
   1.785869e-04    3.052983e+06   -5.639354e-01    3.052983e+06    0.000000e+00    1.007087e+05    0.000000e+00    1.183341e+00    1.844612e+01   -1.438061e-13
   1.796468e-04    3.025982e+06   -1.323647e-03    3.025982e+06    0.000000e+00    1.001140e+05    0.000000e+00    1.183341e+00    1.844601e+01   -1.438020e-13
   1.807130e-04    2.999219e+06   -1.096821e+00    2.999220e+06    0.000000e+00    9.952288e+04    0.000000e+00    1.183341e+00    1.844590e+01   -1.437979e-13
   1.817855e-04    2.972695e+06   -5.311088e-01    2.972695e+06    0.000000e+00    9.893522e+04    0.000000e+00    1.183341e+00    1.844579e+01   -1.437938e-13
   1.828644e-04    2.946404e+06   -5.054404e-02    2.946404e+06    0.000000e+00    9.835102e+04    0.000000e+00    1.183341e+00    1.844568e+01   -1.437896e-13
   1.839497e-04    2.920344e+06   -1.183829e+00    2.920346e+06    0.000000e+00    9.777028e+04    0.000000e+00    1.183341e+00    1.844557e+01   -1.437855e-13
   1.850414e-04    2.894517e+06   -5.025133e-01    2.894517e+06    0.000000e+00    9.719295e+04    0.000000e+00    1.183341e+00    1.844546e+01   -1.437813e-13
   1.861396e-04    2.868917e+06   -9.698118e-02    2.868917e+06    0.000000e+00    9.661904e+04    0.000000e+00    1.183341e+00    1.844535e+01   -1.437770e-13
   1.872443e-04    2.843543e+06   -1.266100e+00    2.843544e+06    0.000000e+00    9.604851e+04    0.000000e+00    1.183341e+00    1.844523e+01   -1.437728e-13
   1.883556e-04    2.818394e+06   -4.808779e-01    2.818395e+06    0.000000e+00    9.548135e+04    0.000000e+00    1.183341e+00    1.844512e+01   -1.437685e-13
   1.894735e-04    2.793467e+06   -1.459637e-01    2.793468e+06    0.000000e+00    9.491753e+04    0.000000e+00    1.183341e+00    1.844500e+01   -1.437642e-13
   1.905980e-04    2.768760e+06   -1.342849e+00    2.768761e+06    0.000000e+00    9.435704e+04    0.000000e+00    1.183341e+00    1.844489e+01   -1.437599e-13
   1.917292e-04    2.744272e+06   -4.597627e-01    2.744273e+06    0.000000e+00    9.379986e+04    0.000000e+00    1.183341e+00    1.844477e+01   -1.437555e-13
   1.928671e-04    2.720001e+06   -1.970580e-01    2.720001e+06    0.000000e+00    9.324596e+04    0.000000e+00    1.183341e+00    1.844466e+01   -1.437511e-13
   1.940117e-04    2.695942e+06   -1.421801e+00    2.695944e+06    0.000000e+00    9.269533e+04    0.000000e+00    1.183341e+00    1.844454e+01   -1.437467e-13
   1.951632e-04    2.672098e+06   -4.395683e-01    2.672099e+06    0.000000e+00    9.214795e+04    0.000000e+00    1.183341e+00    1.844442e+01   -1.437423e-13
   1.963215e-04    2.648465e+06   -2.470318e-01    2.648465e+06    0.000000e+00    9.160380e+04    0.000000e+00    1.183341e+00    1.844430e+01   -1.437378e-13
   1.974866e-04    2.625039e+06   -1.499574e+00    2.625040e+06    0.000000e+00    9.106286e+04    0.000000e+00    1.183341e+00    1.844418e+01   -1.437333e-13
   1.986587e-04    2.601822e+06   -4.256257e-01    2.601822e+06    0.000000e+00    9.052512e+04    0.000000e+00    1.183341e+00    1.844406e+01   -1.437288e-13
   1.998377e-04    2.578809e+06   -2.961202e-01    2.578810e+06    0.000000e+00    8.999054e+04    0.000000e+00    1.183341e+00    1.844394e+01   -1.437243e-13
   2.010238e-04    2.555999e+06   -1.579457e+00    2.556000e+06    0.000000e+00    8.945912e+04    0.000000e+00    1.183341e+00    1.844382e+01   -1.437197e-13
   2.022168e-04    2.533392e+06   -4.159474e-01    2.533393e+06    0.000000e+00    8.893083e+04    0.000000e+00    1.183341e+00    1.844370e+01   -1.437151e-13
   2.034170e-04    2.510985e+06   -3.471514e-01    2.510985e+06    0.000000e+00    8.840566e+04    0.000000e+00    1.183341e+00    1.844358e+01   -1.437105e-13
   2.046242e-04    2.488774e+06   -1.654430e+00    2.488775e+06    0.000000e+00    8.788359e+04    0.000000e+00    1.183341e+00    1.844345e+01   -1.437058e-13
