# All units in Hartree [AU] if not specified
# Convergence: Err(φ)=3.822e-11, Err(n_e)=8.337e-11, Err(IET)=9.170e-13, Q_net=3.211e-07
# {"name":"Ar", "Z":18, "Zstar":1.2960264014935454, "A":39.948,  "μ[AU]": -2.3227460702e-01, "Te[AU]": 7.266e-02, "Ti[AU]": 7.266e-02, "rs[AU]": 1.372e+01 }
   r[AU]           n[AU]           nf[AU]          nb[AU]          n_ion[AU]       φtot[AU]        δVxc/δρ[Au]     U_ei[AU]        U_ii[AU]        g_ii            
   1.000000e-04    7.290096e+06   -1.080921e+01    7.290107e+06    0.000000e+00    1.799174e+05    0.000000e+00    4.183458e+00    6.972516e+01   -1.223573e-14
   1.005935e-04    7.225645e+06   -1.060921e+01    7.225656e+06    0.000000e+00    1.788555e+05    0.000000e+00    4.183458e+00    6.972493e+01   -1.223554e-14
   1.011905e-04    7.161765e+06   -1.011094e+01    7.161775e+06    0.000000e+00    1.777997e+05    0.000000e+00    4.183458e+00    6.972470e+01   -1.223534e-14
   1.017911e-04    7.098447e+06   -1.144822e+01    7.098458e+06    0.000000e+00    1.767502e+05    0.000000e+00    4.183458e+00    6.972446e+01   -1.223515e-14
   1.023952e-04    7.035691e+06   -9.692226e+00    7.035701e+06    0.000000e+00    1.757069e+05    0.000000e+00    4.183458e+00    6.972422e+01   -1.223495e-14
   1.030029e-04    6.973486e+06   -1.250571e+01    6.973499e+06    0.000000e+00    1.746698e+05    0.000000e+00    4.183458e+00    6.972398e+01   -1.223475e-14
   1.036142e-04    6.911837e+06   -9.523116e+00    6.911846e+06    0.000000e+00    1.736388e+05    0.000000e+00    4.183458e+00    6.972374e+01   -1.223455e-14
   1.042292e-04    6.850726e+06   -1.278197e+01    6.850738e+06    0.000000e+00    1.726138e+05    0.000000e+00    4.183458e+00    6.972350e+01   -1.223435e-14
   1.048478e-04    6.790161e+06   -9.601928e+00    6.790171e+06    0.000000e+00    1.715949e+05    0.000000e+00    4.183458e+00    6.972325e+01   -1.223415e-14
   1.054700e-04    6.730127e+06   -1.158776e+01    6.730138e+06    0.000000e+00    1.705821e+05    0.000000e+00    4.183458e+00    6.972301e+01   -1.223394e-14
   1.060960e-04    6.670627e+06   -9.920133e+00    6.670637e+06    0.000000e+00    1.695751e+05    0.000000e+00    4.183458e+00    6.972276e+01   -1.223374e-14
   1.067257e-04    6.611650e+06   -1.067960e+01    6.611661e+06    0.000000e+00    1.685742e+05    0.000000e+00    4.183458e+00    6.972252e+01   -1.223353e-14
   1.073591e-04    6.553196e+06   -1.045969e+01    6.553206e+06    0.000000e+00    1.675791e+05    0.000000e+00    4.183458e+00    6.972227e+01   -1.223332e-14
   1.079962e-04    6.495258e+06   -1.003733e+01    6.495268e+06    0.000000e+00    1.665899e+05    0.000000e+00    4.183458e+00    6.972201e+01   -1.223312e-14
   1.086372e-04    6.437831e+06   -1.120990e+01    6.437842e+06    0.000000e+00    1.656066e+05    0.000000e+00    4.183458e+00    6.972176e+01   -1.223291e-14
   1.092819e-04    6.380914e+06   -9.638915e+00    6.380924e+06    0.000000e+00    1.646290e+05    0.000000e+00    4.183458e+00    6.972151e+01   -1.223269e-14
   1.099305e-04    6.324496e+06   -1.216345e+01    6.324509e+06    0.000000e+00    1.636572e+05    0.000000e+00    4.183458e+00    6.972125e+01   -1.223248e-14
   1.105830e-04    6.268583e+06   -9.484284e+00    6.268592e+06    0.000000e+00    1.626912e+05    0.000000e+00    4.183458e+00    6.972100e+01   -1.223227e-14
   1.112393e-04    6.213157e+06   -1.245805e+01    6.213170e+06    0.000000e+00    1.617308e+05    0.000000e+00    4.183458e+00    6.972074e+01   -1.223205e-14
   1.118995e-04    6.158227e+06   -9.549792e+00    6.158237e+06    0.000000e+00    1.607761e+05    0.000000e+00    4.183458e+00    6.972048e+01   -1.223184e-14
   1.125636e-04    6.103778e+06   -1.137469e+01    6.103790e+06    0.000000e+00    1.598271e+05    0.000000e+00    4.183458e+00    6.972022e+01   -1.223162e-14
   1.132316e-04    6.049814e+06   -9.821881e+00    6.049824e+06    0.000000e+00    1.588836e+05    0.000000e+00    4.183458e+00    6.971995e+01   -1.223140e-14
   1.139037e-04    5.996325e+06   -1.053977e+01    5.996335e+06    0.000000e+00    1.579457e+05    0.000000e+00    4.183458e+00    6.971969e+01   -1.223118e-14
   1.145797e-04    5.943309e+06   -1.029947e+01    5.943319e+06    0.000000e+00    1.570134e+05    0.000000e+00    4.183458e+00    6.971942e+01   -1.223096e-14
   1.152597e-04    5.890761e+06   -9.946607e+00    5.890771e+06    0.000000e+00    1.560865e+05    0.000000e+00    4.183458e+00    6.971915e+01   -1.223074e-14
   1.159437e-04    5.838677e+06   -1.096642e+01    5.838688e+06    0.000000e+00    1.551652e+05    0.000000e+00    4.183458e+00    6.971888e+01   -1.223051e-14
   1.166319e-04    5.787056e+06   -9.578969e+00    5.787065e+06    0.000000e+00    1.542492e+05    0.000000e+00    4.183458e+00    6.971861e+01   -1.223029e-14
   1.173241e-04    5.735887e+06   -1.181231e+01    5.735899e+06    0.000000e+00    1.533387e+05    0.000000e+00    4.183458e+00    6.971834e+01   -1.223006e-14
   1.180204e-04    5.685175e+06   -9.421951e+00    5.685185e+06    0.000000e+00    1.524335e+05    0.000000e+00    4.183458e+00    6.971807e+01   -1.222983e-14
   1.187208e-04    5.634906e+06   -1.216053e+01    5.634918e+06    0.000000e+00    1.515337e+05    0.000000e+00    4.183458e+00    6.971779e+01   -1.222960e-14
   1.194254e-04    5.585087e+06   -9.464818e+00    5.585097e+06    0.000000e+00    1.506391e+05    0.000000e+00    4.183458e+00    6.971751e+01   -1.222937e-14
   1.201342e-04    5.535704e+06   -1.115936e+01    5.535715e+06    0.000000e+00    1.497499e+05    0.000000e+00    4.183458e+00    6.971723e+01   -1.222914e-14
   1.208472e-04    5.486761e+06   -9.706229e+00    5.486770e+06    0.000000e+00    1.488659e+05    0.000000e+00    4.183458e+00    6.971695e+01   -1.222891e-14
   1.215644e-04    5.438247e+06   -1.039073e+01    5.438258e+06    0.000000e+00    1.479871e+05    0.000000e+00    4.183458e+00    6.971667e+01   -1.222867e-14
   1.222859e-04    5.390164e+06   -1.012564e+01    5.390174e+06    0.000000e+00    1.471135e+05    0.000000e+00    4.183458e+00    6.971639e+01   -1.222844e-14
   1.230117e-04    5.342506e+06   -9.838528e+00    5.342516e+06    0.000000e+00    1.462451e+05    0.000000e+00    4.183458e+00    6.971610e+01   -1.222820e-14
   1.237417e-04    5.295268e+06   -1.071525e+01    5.295278e+06    0.000000e+00    1.453817e+05    0.000000e+00    4.183458e+00    6.971581e+01   -1.222796e-14
   1.244761e-04    5.248449e+06   -9.490491e+00    5.248458e+06    0.000000e+00    1.445235e+05    0.000000e+00    4.183458e+00    6.971552e+01   -1.222772e-14
   1.252149e-04    5.202041e+06   -1.147519e+01    5.202052e+06    0.000000e+00    1.436703e+05    0.000000e+00    4.183458e+00    6.971523e+01   -1.222748e-14
   1.259580e-04    5.156047e+06   -9.340176e+00    5.156056e+06    0.000000e+00    1.428222e+05    0.000000e+00    4.183458e+00    6.971494e+01   -1.222724e-14
   1.267056e-04    5.110455e+06   -1.185716e+01    5.110467e+06    0.000000e+00    1.419791e+05    0.000000e+00    4.183458e+00    6.971465e+01   -1.222699e-14
   1.274576e-04    5.065271e+06   -9.369765e+00    5.065281e+06    0.000000e+00    1.411409e+05    0.000000e+00    4.183458e+00    6.971435e+01   -1.222674e-14
   1.282140e-04    5.020483e+06   -1.094921e+01    5.020494e+06    0.000000e+00    1.403077e+05    0.000000e+00    4.183458e+00    6.971405e+01   -1.222650e-14
   1.289750e-04    4.976093e+06   -9.568611e+00    4.976102e+06    0.000000e+00    1.394794e+05    0.000000e+00    4.183458e+00    6.971375e+01   -1.222625e-14
   1.297404e-04    4.932093e+06   -1.023395e+01    4.932104e+06    0.000000e+00    1.386560e+05    0.000000e+00    4.183458e+00    6.971345e+01   -1.222600e-14
   1.305104e-04    4.888484e+06   -9.935900e+00    4.888494e+06    0.000000e+00    1.378375e+05    0.000000e+00    4.183458e+00    6.971315e+01   -1.222575e-14
   1.312850e-04    4.845259e+06   -9.720133e+00    4.845269e+06    0.000000e+00    1.370238e+05    0.000000e+00    4.183458e+00    6.971284e+01   -1.222549e-14
   1.320642e-04    4.802416e+06   -1.045808e+01    4.802427e+06    0.000000e+00    1.362149e+05    0.000000e+00    4.183458e+00    6.971253e+01   -1.222524e-14
   1.328480e-04    4.759953e+06   -9.391182e+00    4.759963e+06    0.000000e+00    1.354107e+05    0.000000e+00    4.183458e+00    6.971223e+01   -1.222498e-14
   1.336364e-04    4.717863e+06   -1.113264e+01    4.717874e+06    0.000000e+00    1.346113e+05    0.000000e+00    4.183458e+00    6.971192e+01   -1.222472e-14
   1.344295e-04    4.676149e+06   -9.240708e+00    4.676158e+06    0.000000e+00    1.338166e+05    0.000000e+00    4.183458e+00    6.971160e+01   -1.222446e-14
   1.352274e-04    4.634799e+06   -1.156927e+01    4.634810e+06    0.000000e+00    1.330266e+05    0.000000e+00    4.183458e+00    6.971129e+01   -1.222420e-14
   1.360299e-04    4.593819e+06   -9.250106e+00    4.593828e+06    0.000000e+00    1.322413e+05    0.000000e+00    4.183458e+00    6.971097e+01   -1.222394e-14
   1.368372e-04    4.553197e+06   -1.072778e+01    4.553208e+06    0.000000e+00    1.314606e+05    0.000000e+00    4.183458e+00    6.971065e+01   -1.222367e-14
   1.376494e-04    4.512937e+06   -9.426276e+00    4.512947e+06    0.000000e+00    1.306845e+05    0.000000e+00    4.183458e+00    6.971033e+01   -1.222341e-14
   1.384663e-04    4.473032e+06   -1.007055e+01    4.473042e+06    0.000000e+00    1.299130e+05    0.000000e+00    4.183458e+00    6.971001e+01   -1.222314e-14
   1.392881e-04    4.433480e+06   -9.738320e+00    4.433489e+06    0.000000e+00    1.291460e+05    0.000000e+00    4.183458e+00    6.970969e+01   -1.222287e-14
   1.401148e-04    4.394277e+06   -9.592431e+00    4.394286e+06    0.000000e+00    1.283836e+05    0.000000e+00    4.183458e+00    6.970936e+01   -1.222260e-14
   1.409463e-04    4.355420e+06   -1.019693e+01    4.355430e+06    0.000000e+00    1.276257e+05    0.000000e+00    4.183458e+00    6.970904e+01   -1.222233e-14
   1.417828e-04    4.316908e+06   -9.278054e+00    4.316917e+06    0.000000e+00    1.268722e+05    0.000000e+00    4.183458e+00    6.970871e+01   -1.222206e-14
   1.426243e-04    4.278734e+06   -1.078807e+01    4.278745e+06    0.000000e+00    1.261232e+05    0.000000e+00    4.183458e+00    6.970837e+01   -1.222178e-14
   1.434708e-04    4.240900e+06   -9.127054e+00    4.240910e+06    0.000000e+00    1.253786e+05    0.000000e+00    4.183458e+00    6.970804e+01   -1.222150e-14
   1.443223e-04    4.203398e+06   -1.128919e+01    4.203409e+06    0.000000e+00    1.246384e+05    0.000000e+00    4.183458e+00    6.970771e+01   -1.222123e-14
   1.451788e-04    4.166231e+06   -9.120940e+00    4.166240e+06    0.000000e+00    1.239025e+05    0.000000e+00    4.183458e+00    6.970737e+01   -1.222095e-14
   1.460404e-04    4.129388e+06   -1.051121e+01    4.129399e+06    0.000000e+00    1.231710e+05    0.000000e+00    4.183458e+00    6.970703e+01   -1.222066e-14
   1.469072e-04    4.092875e+06   -9.259897e+00    4.092884e+06    0.000000e+00    1.224438e+05    0.000000e+00    4.183458e+00    6.970669e+01   -1.222038e-14
   1.477791e-04    4.056682e+06   -9.901627e+00    4.056692e+06    0.000000e+00    1.217209e+05    0.000000e+00    4.183458e+00    6.970634e+01   -1.222009e-14
   1.486561e-04    4.020810e+06   -9.533419e+00    4.020819e+06    0.000000e+00    1.210023e+05    0.000000e+00    4.183458e+00    6.970600e+01   -1.221981e-14
   1.495384e-04    3.985254e+06   -9.451636e+00    3.985264e+06    0.000000e+00    1.202879e+05    0.000000e+00    4.183458e+00    6.970565e+01   -1.221952e-14
   1.504259e-04    3.950013e+06   -9.934036e+00    3.950023e+06    0.000000e+00    1.195778e+05    0.000000e+00    4.183458e+00    6.970530e+01   -1.221923e-14
   1.513187e-04    3.915084e+06   -9.153419e+00    3.915093e+06    0.000000e+00    1.188718e+05    0.000000e+00    4.183458e+00    6.970495e+01   -1.221894e-14
   1.522167e-04    3.880462e+06   -1.045466e+01    3.880472e+06    0.000000e+00    1.181700e+05    0.000000e+00    4.183458e+00    6.970460e+01   -1.221864e-14
   1.531201e-04    3.846148e+06   -8.998824e+00    3.846157e+06    0.000000e+00    1.174723e+05    0.000000e+00    4.183458e+00    6.970424e+01   -1.221835e-14
   1.540289e-04    3.812135e+06   -1.101639e+01    3.812146e+06    0.000000e+00    1.167787e+05    0.000000e+00    4.183458e+00    6.970388e+01   -1.221805e-14
   1.549430e-04    3.778426e+06   -8.980496e+00    3.778435e+06    0.000000e+00    1.160892e+05    0.000000e+00    4.183458e+00    6.970352e+01   -1.221775e-14
   1.558626e-04    3.745012e+06   -1.029621e+01    3.745022e+06    0.000000e+00    1.154038e+05    0.000000e+00    4.183458e+00    6.970316e+01   -1.221745e-14
   1.567877e-04    3.711895e+06   -9.090972e+00    3.711905e+06    0.000000e+00    1.147225e+05    0.000000e+00    4.183458e+00    6.970280e+01   -1.221715e-14
   1.577182e-04    3.679070e+06   -9.728164e+00    3.679080e+06    0.000000e+00    1.140451e+05    0.000000e+00    4.183458e+00    6.970243e+01   -1.221684e-14
   1.586542e-04    3.646536e+06   -9.323314e+00    3.646545e+06    0.000000e+00    1.133718e+05    0.000000e+00    4.183458e+00    6.970206e+01   -1.221654e-14
   1.595958e-04    3.614288e+06   -9.304926e+00    3.614298e+06    0.000000e+00    1.127024e+05    0.000000e+00    4.183458e+00    6.970169e+01   -1.221623e-14
   1.605430e-04    3.582326e+06   -9.670669e+00    3.582336e+06    0.000000e+00    1.120370e+05    0.000000e+00    4.183458e+00    6.970132e+01   -1.221592e-14
   1.614958e-04    3.550647e+06   -9.019020e+00    3.550656e+06    0.000000e+00    1.113755e+05    0.000000e+00    4.183458e+00    6.970094e+01   -1.221561e-14
   1.624543e-04    3.519246e+06   -1.012686e+01    3.519256e+06    0.000000e+00    1.107179e+05    0.000000e+00    4.183458e+00    6.970056e+01   -1.221529e-14
   1.634185e-04    3.488126e+06   -8.865999e+00    3.488134e+06    0.000000e+00    1.100642e+05    0.000000e+00    4.183458e+00    6.970018e+01   -1.221498e-14
   1.643883e-04    3.457277e+06   -1.068442e+01    3.457287e+06    0.000000e+00    1.094144e+05    0.000000e+00    4.183458e+00    6.969980e+01   -1.221466e-14
   1.653640e-04    3.426704e+06   -8.833084e+00    3.426713e+06    0.000000e+00    1.087683e+05    0.000000e+00    4.183458e+00    6.969942e+01   -1.221434e-14
   1.663454e-04    3.396399e+06   -1.008637e+01    3.396409e+06    0.000000e+00    1.081261e+05    0.000000e+00    4.183458e+00    6.969903e+01   -1.221402e-14
   1.673327e-04    3.366364e+06   -8.915167e+00    3.366373e+06    0.000000e+00    1.074877e+05    0.000000e+00    4.183458e+00    6.969864e+01   -1.221370e-14
   1.683258e-04    3.336593e+06   -9.551472e+00    3.336602e+06    0.000000e+00    1.068531e+05    0.000000e+00    4.183458e+00    6.969825e+01   -1.221337e-14
   1.693248e-04    3.307086e+06   -9.109715e+00    3.307095e+06    0.000000e+00    1.062222e+05    0.000000e+00    4.183458e+00    6.969786e+01   -1.221305e-14
   1.703297e-04    3.277839e+06   -9.151788e+00    3.277848e+06    0.000000e+00    1.055950e+05    0.000000e+00    4.183458e+00    6.969746e+01   -1.221272e-14
   1.713406e-04    3.248850e+06   -9.408489e+00    3.248860e+06    0.000000e+00    1.049715e+05    0.000000e+00    4.183458e+00    6.969706e+01   -1.221239e-14
   1.723575e-04    3.220119e+06   -8.876782e+00    3.220128e+06    0.000000e+00    1.043517e+05    0.000000e+00    4.183458e+00    6.969666e+01   -1.221205e-14
   1.733804e-04    3.191640e+06   -9.805568e+00    3.191650e+06    0.000000e+00    1.037355e+05    0.000000e+00    4.183458e+00    6.969626e+01   -1.221172e-14
   1.744094e-04    3.163415e+06   -8.719590e+00    3.163423e+06    0.000000e+00    1.031230e+05    0.000000e+00    4.183458e+00    6.969585e+01   -1.221138e-14
   1.754445e-04    3.135436e+06   -1.029498e+01    3.135447e+06    0.000000e+00    1.025141e+05    0.000000e+00    4.183458e+00    6.969545e+01   -1.221104e-14
   1.764858e-04    3.107708e+06   -8.674036e+00    3.107717e+06    0.000000e+00    1.019088e+05    0.000000e+00    4.183458e+00    6.969504e+01   -1.221070e-14
   1.775332e-04    3.080223e+06   -9.869040e+00    3.080233e+06    0.000000e+00    1.013071e+05    0.000000e+00    4.183458e+00    6.969462e+01   -1.221036e-14
   1.785869e-04    3.052983e+06   -8.734226e+00    3.052991e+06    0.000000e+00    1.007089e+05    0.000000e+00    4.183458e+00    6.969421e+01   -1.221002e-14
   1.796468e-04    3.025981e+06   -9.372024e+00    3.025991e+06    0.000000e+00    1.001142e+05    0.000000e+00    4.183458e+00    6.969379e+01   -1.220967e-14
   1.807130e-04    2.999220e+06   -8.897351e+00    2.999229e+06    0.000000e+00    9.952306e+04    0.000000e+00    4.183458e+00    6.969337e+01   -1.220932e-14
   1.817855e-04    2.972694e+06   -8.993775e+00    2.972703e+06    0.000000e+00    9.893540e+04    0.000000e+00    4.183458e+00    6.969295e+01   -1.220897e-14
   1.828644e-04    2.946403e+06   -9.148835e+00    2.946412e+06    0.000000e+00    9.835120e+04    0.000000e+00    4.183458e+00    6.969252e+01   -1.220862e-14
   1.839497e-04    2.920345e+06   -8.728024e+00    2.920354e+06    0.000000e+00    9.777046e+04    0.000000e+00    4.183458e+00    6.969210e+01   -1.220826e-14
   1.850414e-04    2.894516e+06   -9.496035e+00    2.894525e+06    0.000000e+00    9.719313e+04    0.000000e+00    4.183458e+00    6.969167e+01   -1.220791e-14
   1.861396e-04    2.868917e+06   -8.569330e+00    2.868926e+06    0.000000e+00    9.661922e+04    0.000000e+00    4.183458e+00    6.969123e+01   -1.220755e-14
   1.872443e-04    2.843542e+06   -9.919722e+00    2.843552e+06    0.000000e+00    9.604869e+04    0.000000e+00    4.183458e+00    6.969080e+01   -1.220718e-14
   1.883556e-04    2.818394e+06   -8.513703e+00    2.818403e+06    0.000000e+00    9.548153e+04    0.000000e+00    4.183458e+00    6.969036e+01   -1.220682e-14
   1.894735e-04    2.793466e+06   -9.658337e+00    2.793476e+06    0.000000e+00    9.491771e+04    0.000000e+00    4.183458e+00    6.968992e+01   -1.220646e-14
   1.905980e-04    2.768760e+06   -8.549901e+00    2.768769e+06    0.000000e+00    9.435722e+04    0.000000e+00    4.183458e+00    6.968948e+01   -1.220609e-14
   1.917292e-04    2.744271e+06   -9.191098e+00    2.744281e+06    0.000000e+00    9.380004e+04    0.000000e+00    4.183458e+00    6.968903e+01   -1.220572e-14
   1.928671e-04    2.720000e+06   -8.678526e+00    2.720009e+06    0.000000e+00    9.324614e+04    0.000000e+00    4.183458e+00    6.968858e+01   -1.220535e-14
   1.940117e-04    2.695943e+06   -8.831749e+00    2.695951e+06    0.000000e+00    9.269551e+04    0.000000e+00    4.183458e+00    6.968813e+01   -1.220497e-14
   1.951632e-04    2.672098e+06   -8.892857e+00    2.672107e+06    0.000000e+00    9.214813e+04    0.000000e+00    4.183458e+00    6.968768e+01   -1.220460e-14
   1.963215e-04    2.648464e+06   -8.576994e+00    2.648473e+06    0.000000e+00    9.160398e+04    0.000000e+00    4.183458e+00    6.968722e+01   -1.220422e-14
   1.974866e-04    2.625039e+06   -9.187657e+00    2.625048e+06    0.000000e+00    9.106304e+04    0.000000e+00    4.183458e+00    6.968676e+01   -1.220384e-14
   1.986587e-04    2.601822e+06   -8.415539e+00    2.601830e+06    0.000000e+00    9.052530e+04    0.000000e+00    4.183458e+00    6.968630e+01   -1.220345e-14
   1.998377e-04    2.578808e+06   -9.561927e+00    2.578817e+06    0.000000e+00    8.999072e+04    0.000000e+00    4.183458e+00    6.968584e+01   -1.220307e-14
   2.010238e-04    2.556000e+06   -8.345305e+00    2.556008e+06    0.000000e+00    8.945930e+04    0.000000e+00    4.183458e+00    6.968537e+01   -1.220268e-14
   2.022168e-04    2.533391e+06   -9.449328e+00    2.533401e+06    0.000000e+00    8.893101e+04    0.000000e+00    4.183458e+00    6.968490e+01   -1.220229e-14
   2.034170e-04    2.510984e+06   -8.363368e+00    2.510993e+06    0.000000e+00    8.840585e+04    0.000000e+00    4.183458e+00    6.968443e+01   -1.220190e-14
   2.046242e-04    2.488774e+06   -9.009280e+00    2.488783e+06    0.000000e+00    8.788378e+04    0.000000e+00    4.183458e+00    6.968395e+01   -1.220150e-14
