# All units in Hartree [AU] if not specified
# Convergence: Err(φ)=3.923e-11, Err(n_e)=9.242e-11, Err(IET)=1.812e+01, Q_net=6.508e-07
# {"name":"Ar", "Z":18, "Zstar":0.3600462214100375, "A":39.948,  "μ[AU]": -4.1094413038e-04, "Te[AU]": 3.756e-03, "Ti[AU]": 3.756e-03, "rs[AU]": 1.372e+01 }
   r[AU]           n[AU]           nf[AU]          nb[AU]          n_ion[AU]       φtot[AU]        δVxc/δρ[Au]     U_ei[AU]        U_ii[AU]        g_ii            
   1.000000e-04    7.290099e+06    5.601925e+00    7.290093e+06    0.000000e+00    1.799172e+05    0.000000e+00   -1.515467e+01    5.388270e+00   4.848040e-171
   1.005935e-04    7.225647e+06    4.922097e+00    7.225642e+06    0.000000e+00    1.788552e+05    0.000000e+00   -1.390745e+01    5.388253e+00   4.847963e-171
   1.011905e-04    7.161764e+06    2.870662e+00    7.161761e+06    0.000000e+00    1.777995e+05    0.000000e+00   -9.726668e+00    5.388236e+00   4.847885e-171
   1.017911e-04    7.098446e+06    1.530901e+00    7.098445e+06    0.000000e+00    1.767500e+05    0.000000e+00   -6.417119e+00    5.388218e+00   4.847807e-171
   1.023952e-04    7.035692e+06    4.061939e+00    7.035687e+06    0.000000e+00    1.757067e+05    0.000000e+00   -1.224345e+01    5.388201e+00   4.847729e-171
   1.030029e-04    6.973490e+06    5.239776e+00    6.973485e+06    0.000000e+00    1.746696e+05    0.000000e+00   -1.449700e+01    5.388183e+00   4.847650e-171
   1.036142e-04    6.911838e+06    5.087606e+00    6.911833e+06    0.000000e+00    1.736385e+05    0.000000e+00   -1.421598e+01    5.388166e+00   4.847571e-171
   1.042292e-04    6.850728e+06    3.608390e+00    6.850725e+06    0.000000e+00    1.726136e+05    0.000000e+00   -1.131847e+01    5.388148e+00   4.847491e-171
   1.048478e-04    6.790158e+06    8.815958e-01    6.790157e+06    0.000000e+00    1.715947e+05    0.000000e+00   -4.460332e+00    5.388130e+00   4.847411e-171
   1.054700e-04    6.730128e+06    3.136394e+00    6.730125e+06    0.000000e+00    1.705818e+05    0.000000e+00   -1.031435e+01    5.388113e+00   4.847330e-171
   1.060960e-04    6.670628e+06    4.731441e+00    6.670623e+06    0.000000e+00    1.695749e+05    0.000000e+00   -1.354794e+01    5.388095e+00   4.847249e-171
   1.067257e-04    6.611653e+06    5.041050e+00    6.611647e+06    0.000000e+00    1.685740e+05    0.000000e+00   -1.413006e+01    5.388076e+00   4.847167e-171
   1.073591e-04    6.553197e+06    4.108358e+00    6.553193e+06    0.000000e+00    1.675789e+05    0.000000e+00   -1.233579e+01    5.388058e+00   4.847085e-171
   1.079962e-04    6.495257e+06    1.938454e+00    6.495255e+06    0.000000e+00    1.665897e+05    0.000000e+00   -7.500094e+00    5.388040e+00   4.847002e-171
   1.086372e-04    6.437831e+06    2.096300e+00    6.437829e+06    0.000000e+00    1.656063e+05    0.000000e+00   -7.899019e+00    5.388021e+00   4.846919e-171
   1.092819e-04    6.380915e+06    4.090710e+00    6.380911e+06    0.000000e+00    1.646288e+05    0.000000e+00   -1.230050e+01    5.388003e+00   4.846836e-171
   1.099305e-04    6.324500e+06    4.843921e+00    6.324496e+06    0.000000e+00    1.636570e+05    0.000000e+00   -1.376088e+01    5.387984e+00   4.846751e-171
   1.105830e-04    6.268583e+06    4.382521e+00    6.268579e+06    0.000000e+00    1.626910e+05    0.000000e+00   -1.287616e+01    5.387966e+00   4.846667e-171
   1.112393e-04    6.213159e+06    2.760192e+00    6.213157e+06    0.000000e+00    1.617306e+05    0.000000e+00   -9.476999e+00    5.387947e+00   4.846582e-171
   1.118995e-04    6.158225e+06    9.813751e-01    6.158224e+06    0.000000e+00    1.607759e+05    0.000000e+00   -4.786196e+00    5.387928e+00   4.846496e-171
   1.125636e-04    6.103780e+06    3.333819e+00    6.103777e+06    0.000000e+00    1.598269e+05    0.000000e+00   -1.074024e+01    5.387909e+00   4.846410e-171
   1.132316e-04    6.049816e+06    4.487893e+00    6.049811e+06    0.000000e+00    1.588834e+05    0.000000e+00   -1.308056e+01    5.387889e+00   4.846323e-171
   1.139037e-04    5.996327e+06    4.471160e+00    5.996322e+06    0.000000e+00    1.579455e+05    0.000000e+00   -1.304842e+01    5.387870e+00   4.846236e-171
   1.145797e-04    5.943309e+06    3.336277e+00    5.943306e+06    0.000000e+00    1.570132e+05    0.000000e+00   -1.074550e+01    5.387851e+00   4.846148e-171
   1.152597e-04    5.890760e+06    1.069009e+00    5.890759e+06    0.000000e+00    1.560863e+05    0.000000e+00   -5.063583e+00    5.387831e+00   4.846060e-171
   1.159437e-04    5.838678e+06    2.480014e+00    5.838675e+06    0.000000e+00    1.551649e+05    0.000000e+00   -8.828273e+00    5.387811e+00   4.845971e-171
   1.166319e-04    5.787057e+06    4.006480e+00    5.787053e+06    0.000000e+00    1.542490e+05    0.000000e+00   -1.213232e+01    5.387792e+00   4.845882e-171
   1.173241e-04    5.735891e+06    4.394291e+00    5.735886e+06    0.000000e+00    1.533384e+05    0.000000e+00   -1.289924e+01    5.387772e+00   4.845792e-171
   1.180204e-04    5.685176e+06    3.695249e+00    5.685172e+06    0.000000e+00    1.524333e+05    0.000000e+00   -1.149877e+01    5.387752e+00   4.845702e-171
   1.187208e-04    5.634908e+06    1.945312e+00    5.634906e+06    0.000000e+00    1.515334e+05    0.000000e+00   -7.517657e+00    5.387732e+00   4.845611e-171
   1.194254e-04    5.585086e+06    1.557698e+00    5.585084e+06    0.000000e+00    1.506389e+05    0.000000e+00   -6.490859e+00    5.387711e+00   4.845520e-171
   1.201342e-04    5.535706e+06    3.416616e+00    5.535703e+06    0.000000e+00    1.497497e+05    0.000000e+00   -1.091612e+01    5.387691e+00   4.845428e-171
   1.208472e-04    5.486762e+06    4.176513e+00    5.486758e+06    0.000000e+00    1.488657e+05    0.000000e+00   -1.247158e+01    5.387670e+00   4.845335e-171
   1.215644e-04    5.438249e+06    3.884003e+00    5.438245e+06    0.000000e+00    1.479869e+05    0.000000e+00   -1.188502e+01    5.387650e+00   4.845242e-171
   1.222859e-04    5.390164e+06    2.582217e+00    5.390162e+06    0.000000e+00    1.471133e+05    0.000000e+00   -9.067590e+00    5.387629e+00   4.845149e-171
   1.230117e-04    5.342504e+06    5.754098e-01    5.342503e+06    0.000000e+00    1.462448e+05    0.000000e+00   -3.370955e+00    5.387608e+00   4.845055e-171
   1.237417e-04    5.295269e+06    2.719285e+00    5.295266e+06    0.000000e+00    1.453815e+05    0.000000e+00   -9.383580e+00    5.387587e+00   4.844960e-171
   1.244761e-04    5.248450e+06    3.839423e+00    5.248446e+06    0.000000e+00    1.445233e+05    0.000000e+00   -1.179404e+01    5.387566e+00   4.844865e-171
   1.252149e-04    5.202044e+06    3.917037e+00    5.202040e+06    0.000000e+00    1.436701e+05    0.000000e+00   -1.195208e+01    5.387545e+00   4.844769e-171
   1.259580e-04    5.156047e+06    3.029459e+00    5.156044e+06    0.000000e+00    1.428220e+05    0.000000e+00   -1.007986e+01    5.387524e+00   4.844673e-171
   1.267056e-04    5.110456e+06    1.172368e+00    5.110455e+06    0.000000e+00    1.419789e+05    0.000000e+00   -5.381118e+00    5.387502e+00   4.844576e-171
   1.274576e-04    5.065270e+06    1.962504e+00    5.065268e+06    0.000000e+00    1.411407e+05    0.000000e+00   -7.561795e+00    5.387480e+00   4.844478e-171
   1.282140e-04    5.020485e+06    3.383720e+00    5.020481e+06    0.000000e+00    1.403075e+05    0.000000e+00   -1.084629e+01    5.387459e+00   4.844380e-171
   1.289750e-04    4.976094e+06    3.815717e+00    4.976090e+06    0.000000e+00    1.394792e+05    0.000000e+00   -1.174601e+01    5.387437e+00   4.844281e-171
   1.297404e-04    4.932095e+06    3.304826e+00    4.932091e+06    0.000000e+00    1.386558e+05    0.000000e+00   -1.067790e+01    5.387415e+00   4.844182e-171
   1.305104e-04    4.888483e+06    1.868271e+00    4.888482e+06    0.000000e+00    1.378373e+05    0.000000e+00   -7.319625e+00    5.387393e+00   4.844082e-171
   1.312850e-04    4.845258e+06    1.142030e+00    4.845257e+06    0.000000e+00    1.370236e+05    0.000000e+00   -5.288796e+00    5.387370e+00   4.843982e-171
   1.320642e-04    4.802418e+06    2.833885e+00    4.802415e+06    0.000000e+00    1.362146e+05    0.000000e+00   -9.643702e+00    5.387348e+00   4.843881e-171
   1.328480e-04    4.759955e+06    3.595839e+00    4.759951e+06    0.000000e+00    1.354105e+05    0.000000e+00   -1.129255e+01    5.387325e+00   4.843779e-171
   1.336364e-04    4.717866e+06    3.431189e+00    4.717863e+06    0.000000e+00    1.346111e+05    0.000000e+00   -1.094714e+01    5.387303e+00   4.843677e-171
   1.344295e-04    4.676149e+06    2.381795e+00    4.676146e+06    0.000000e+00    1.338164e+05    0.000000e+00   -8.595461e+00    5.387280e+00   4.843574e-171
   1.352274e-04    4.634799e+06    4.577745e-01    4.634798e+06    0.000000e+00    1.330264e+05    0.000000e+00   -2.902886e+00    5.387257e+00   4.843470e-171
   1.360299e-04    4.593818e+06    2.227455e+00    4.593816e+06    0.000000e+00    1.322411e+05    0.000000e+00   -8.222642e+00    5.387234e+00   4.843366e-171
   1.368372e-04    4.553199e+06    3.265632e+00    4.553196e+06    0.000000e+00    1.314604e+05    0.000000e+00   -1.059404e+01    5.387211e+00   4.843262e-171
   1.376494e-04    4.512939e+06    3.429267e+00    4.512935e+06    0.000000e+00    1.306843e+05    0.000000e+00   -1.094306e+01    5.387187e+00   4.843156e-171
   1.384663e-04    4.473033e+06    2.725575e+00    4.473030e+06    0.000000e+00    1.299128e+05    0.000000e+00   -9.397842e+00    5.387164e+00   4.843050e-171
   1.392881e-04    4.433479e+06    1.195191e+00    4.433478e+06    0.000000e+00    1.291458e+05    0.000000e+00   -5.450043e+00    5.387140e+00   4.842944e-171
   1.401148e-04    4.394276e+06    1.550905e+00    4.394275e+06    0.000000e+00    1.283834e+05    0.000000e+00   -6.472287e+00    5.387117e+00   4.842837e-171
   1.409463e-04    4.355421e+06    2.847749e+00    4.355419e+06    0.000000e+00    1.276254e+05    0.000000e+00   -9.675103e+00    5.387093e+00   4.842729e-171
   1.417828e-04    4.316909e+06    3.305738e+00    4.316906e+06    0.000000e+00    1.268720e+05    0.000000e+00   -1.067987e+01    5.387069e+00   4.842620e-171
   1.426243e-04    4.278736e+06    2.938651e+00    4.278733e+06    0.000000e+00    1.261230e+05    0.000000e+00   -9.878645e+00    5.387044e+00   4.842511e-171
   1.434708e-04    4.240900e+06    1.753921e+00    4.240898e+06    0.000000e+00    1.253784e+05    0.000000e+00   -7.020330e+00    5.387020e+00   4.842402e-171
   1.443223e-04    4.203398e+06    8.266881e-01    4.203397e+06    0.000000e+00    1.246381e+05    0.000000e+00   -4.275699e+00    5.386996e+00   4.842291e-171
   1.451788e-04    4.166231e+06    2.366622e+00    4.166228e+06    0.000000e+00    1.239023e+05    0.000000e+00   -8.559153e+00    5.386971e+00   4.842180e-171
   1.460404e-04    4.129391e+06    3.087424e+00    4.129388e+06    0.000000e+00    1.231708e+05    0.000000e+00   -1.020698e+01    5.386946e+00   4.842068e-171
   1.469072e-04    4.092876e+06    3.022720e+00    4.092873e+06    0.000000e+00    1.224436e+05    0.000000e+00   -1.006493e+01    5.386921e+00   4.841956e-171
   1.477791e-04    4.056682e+06    2.161936e+00    4.056680e+06    0.000000e+00    1.217207e+05    0.000000e+00   -8.061797e+00    5.386896e+00   4.841843e-171
   1.486561e-04    4.020808e+06    5.565932e-01    4.020808e+06    0.000000e+00    1.210021e+05    0.000000e+00   -3.298419e+00    5.386871e+00   4.841729e-171
   1.495384e-04    3.985254e+06    1.819650e+00    3.985253e+06    0.000000e+00    1.202877e+05    0.000000e+00   -7.192965e+00    5.386846e+00   4.841615e-171
   1.504259e-04    3.950014e+06    2.780564e+00    3.950012e+06    0.000000e+00    1.195775e+05    0.000000e+00   -9.523344e+00    5.386820e+00   4.841500e-171
   1.513187e-04    3.915085e+06    2.986736e+00    3.915082e+06    0.000000e+00    1.188715e+05    0.000000e+00   -9.985267e+00    5.386795e+00   4.841384e-171
   1.522167e-04    3.880464e+06    2.443328e+00    3.880461e+06    0.000000e+00    1.181697e+05    0.000000e+00   -8.741827e+00    5.386769e+00   4.841268e-171
   1.531201e-04    3.846148e+06    1.161744e+00    3.846146e+06    0.000000e+00    1.174720e+05    0.000000e+00   -5.349022e+00    5.386743e+00   4.841151e-171
   1.540289e-04    3.812136e+06    1.226360e+00    3.812135e+06    0.000000e+00    1.167785e+05    0.000000e+00   -5.543272e+00    5.386717e+00   4.841033e-171
   1.549430e-04    3.778426e+06    2.406804e+00    3.778424e+06    0.000000e+00    1.160890e+05    0.000000e+00   -8.654807e+00    5.386690e+00   4.840914e-171
   1.558626e-04    3.745014e+06    2.861930e+00    3.745011e+06    0.000000e+00    1.154036e+05    0.000000e+00   -9.707065e+00    5.386664e+00   4.840795e-171
   1.567877e-04    3.711896e+06    2.595551e+00    3.711894e+06    0.000000e+00    1.147223e+05    0.000000e+00   -9.098733e+00    5.386637e+00   4.840675e-171
   1.577182e-04    3.679070e+06    1.619106e+00    3.679069e+06    0.000000e+00    1.140449e+05    0.000000e+00   -6.658869e+00    5.386611e+00   4.840555e-171
   1.586542e-04    3.646535e+06    5.852751e-01    3.646534e+06    0.000000e+00    1.133716e+05    0.000000e+00   -3.408814e+00    5.386584e+00   4.840433e-171
   1.595958e-04    3.614289e+06    1.979155e+00    3.614287e+06    0.000000e+00    1.127022e+05    0.000000e+00   -7.604181e+00    5.386557e+00   4.840311e-171
   1.605430e-04    3.582327e+06    2.651470e+00    3.582325e+06    0.000000e+00    1.120368e+05    0.000000e+00   -9.227683e+00    5.386529e+00   4.840188e-171
   1.614958e-04    3.550648e+06    2.638280e+00    3.550645e+06    0.000000e+00    1.113753e+05    0.000000e+00   -9.197456e+00    5.386502e+00   4.840065e-171
   1.624543e-04    3.519248e+06    1.951667e+00    3.519246e+06    0.000000e+00    1.107177e+05    0.000000e+00   -7.534019e+00    5.386474e+00   4.839941e-171
   1.634185e-04    3.488124e+06    6.013273e-01    3.488124e+06    0.000000e+00    1.100640e+05    0.000000e+00   -3.469744e+00    5.386447e+00   4.839816e-171
   1.643883e-04    3.457278e+06    1.493662e+00    3.457277e+06    0.000000e+00    1.094141e+05    0.000000e+00   -6.313627e+00    5.386419e+00   4.839690e-171
   1.653640e-04    3.426705e+06    2.373750e+00    3.426702e+06    0.000000e+00    1.087681e+05    0.000000e+00   -8.576239e+00    5.386391e+00   4.839564e-171
   1.663454e-04    3.396401e+06    2.597070e+00    3.396398e+06    0.000000e+00    1.081259e+05    0.000000e+00   -9.102270e+00    5.386363e+00   4.839436e-171
   1.673327e-04    3.366364e+06    2.166931e+00    3.366362e+06    0.000000e+00    1.074875e+05    0.000000e+00   -8.074116e+00    5.386334e+00   4.839308e-171
   1.683258e-04    3.336593e+06    1.102882e+00    3.336592e+06    0.000000e+00    1.068528e+05    0.000000e+00   -5.168719e+00    5.386306e+00   4.839180e-171
   1.693248e-04    3.307085e+06    9.609118e-01    3.307084e+06    0.000000e+00    1.062219e+05    0.000000e+00   -4.720441e+00    5.386277e+00   4.839050e-171
   1.703297e-04    3.277839e+06    2.039081e+00    3.277837e+06    0.000000e+00    1.055947e+05    0.000000e+00   -7.755714e+00    5.386248e+00   4.838920e-171
   1.713406e-04    3.248852e+06    2.473261e+00    3.248849e+06    0.000000e+00    1.049713e+05    0.000000e+00   -8.812457e+00    5.386219e+00   4.838789e-171
   1.723575e-04    3.220120e+06    2.277529e+00    3.220117e+06    0.000000e+00    1.043514e+05    0.000000e+00   -8.344289e+00    5.386190e+00   4.838657e-171
   1.733804e-04    3.191641e+06    1.480455e+00    3.191639e+06    0.000000e+00    1.037353e+05    0.000000e+00   -6.276660e+00    5.386160e+00   4.838525e-171
   1.744094e-04    3.163413e+06    4.055571e-01    3.163413e+06    0.000000e+00    1.031228e+05    0.000000e+00   -2.682375e+00    5.386131e+00   4.838391e-171
   1.754445e-04    3.135438e+06    1.657261e+00    3.135436e+06    0.000000e+00    1.025139e+05    0.000000e+00   -6.762040e+00    5.386101e+00   4.838257e-171
   1.764858e-04    3.107709e+06    2.280409e+00    3.107707e+06    0.000000e+00    1.019086e+05    0.000000e+00   -8.351321e+00    5.386071e+00   4.838122e-171
   1.775332e-04    3.080225e+06    2.303211e+00    3.080222e+06    0.000000e+00    1.013068e+05    0.000000e+00   -8.406687e+00    5.386041e+00   4.837986e-171
   1.785869e-04    3.052983e+06    1.742793e+00    3.052981e+06    0.000000e+00    1.007086e+05    0.000000e+00   -6.990943e+00    5.386011e+00   4.837850e-171
   1.796468e-04    3.025981e+06    6.114968e-01    3.025980e+06    0.000000e+00    1.001140e+05    0.000000e+00   -3.507992e+00    5.385980e+00   4.837713e-171
   1.807130e-04    2.999220e+06    1.224283e+00    2.999218e+06    0.000000e+00    9.952284e+04    0.000000e+00   -5.537042e+00    5.385949e+00   4.837574e-171
   1.817855e-04    2.972695e+06    2.035666e+00    2.972693e+06    0.000000e+00    9.893517e+04    0.000000e+00   -7.747129e+00    5.385919e+00   4.837435e-171
   1.828644e-04    2.946404e+06    2.254590e+00    2.946402e+06    0.000000e+00    9.835098e+04    0.000000e+00   -8.288641e+00    5.385888e+00   4.837296e-171
   1.839497e-04    2.920346e+06    1.909118e+00    2.920344e+06    0.000000e+00    9.777023e+04    0.000000e+00   -7.425164e+00    5.385856e+00   4.837155e-171
   1.850414e-04    2.894516e+06    1.018393e+00    2.894515e+06    0.000000e+00    9.719291e+04    0.000000e+00   -4.904433e+00    5.385825e+00   4.837014e-171
   1.861396e-04    2.868916e+06    7.666954e-01    2.868916e+06    0.000000e+00    9.661899e+04    0.000000e+00   -4.069104e+00    5.385793e+00   4.836871e-171
   1.872443e-04    2.843544e+06    1.734782e+00    2.843542e+06    0.000000e+00    9.604846e+04    0.000000e+00   -6.969671e+00    5.385762e+00   4.836728e-171
   1.883556e-04    2.818395e+06    2.136635e+00    2.818393e+06    0.000000e+00    9.548130e+04    0.000000e+00   -7.998950e+00    5.385730e+00   4.836584e-171
   1.894735e-04    2.793468e+06    1.992889e+00    2.793466e+06    0.000000e+00    9.491748e+04    0.000000e+00   -7.638870e+00    5.385698e+00   4.836439e-171
   1.905980e-04    2.768760e+06    1.326061e+00    2.768759e+06    0.000000e+00    9.435699e+04    0.000000e+00   -5.836558e+00    5.385665e+00   4.836294e-171
   1.917292e-04    2.744271e+06    2.836912e-01    2.744271e+06    0.000000e+00    9.379981e+04    0.000000e+00   -2.126488e+00    5.385633e+00   4.836147e-171
   1.928671e-04    2.720000e+06    1.390890e+00    2.719999e+06    0.000000e+00    9.324592e+04    0.000000e+00   -6.023340e+00    5.385600e+00   4.836000e-171
   1.940117e-04    2.695944e+06    1.963877e+00    2.695942e+06    0.000000e+00    9.269529e+04    0.000000e+00   -7.565306e+00    5.385567e+00   4.835851e-171
   1.951632e-04    2.672099e+06    2.006379e+00    2.672097e+06    0.000000e+00    9.214791e+04    0.000000e+00   -7.672908e+00    5.385534e+00   4.835702e-171
   1.963215e-04    2.648465e+06    1.543138e+00    2.648463e+06    0.000000e+00    9.160376e+04    0.000000e+00   -6.450950e+00    5.385501e+00   4.835552e-171
   1.974866e-04    2.625039e+06    5.782795e-01    2.625038e+06    0.000000e+00    9.106282e+04    0.000000e+00   -3.381953e+00    5.385467e+00   4.835401e-171
   1.986587e-04    2.601821e+06    1.019655e+00    2.601820e+06    0.000000e+00    9.052507e+04    0.000000e+00   -4.908450e+00    5.385434e+00   4.835249e-171
   1.998377e-04    2.578809e+06    1.737355e+00    2.578808e+06    0.000000e+00    8.999050e+04    0.000000e+00   -6.976514e+00    5.385400e+00   4.835097e-171
   2.010238e-04    2.556000e+06    1.958855e+00    2.555999e+06    0.000000e+00    8.945908e+04    0.000000e+00   -7.552461e+00    5.385366e+00   4.834943e-171
   2.022168e-04    2.533393e+06    1.674071e+00    2.533391e+06    0.000000e+00    8.893079e+04    0.000000e+00   -6.807437e+00    5.385331e+00   4.834788e-171
   2.034170e-04    2.510984e+06    9.211138e-01    2.510983e+06    0.000000e+00    8.840562e+04    0.000000e+00   -4.590667e+00    5.385297e+00   4.834633e-171
   2.046242e-04    2.488774e+06    6.250078e-01    2.488774e+06    0.000000e+00    8.788355e+04    0.000000e+00   -3.558692e+00    5.385262e+00   4.834477e-171
