# All units in Hartree [AU] if not specified
# Convergence: Err(φ)=3.958e-11, Err(n_e)=8.880e-11, Err(IET)=9.097e-13, Q_net=-8.040e-08
# {"name":"Ar", "Z":18, "Zstar":0.9375960784248195, "A":39.948,  "μ[AU]": -3.1249097884e-01, "Te[AU]": 8.437e-02, "Ti[AU]": 8.437e-02, "rs[AU]": 1.372e+01 }
   r[AU]           n[AU]           nf[AU]          nb[AU]          n_ion[AU]       φtot[AU]        δVxc/δρ[Au]     U_ei[AU]        U_ii[AU]        g_ii            
   1.000000e-04    7.301575e+06   -1.700509e+01    7.301592e+06    0.000000e+00    1.799149e+05   -1.914950e+02    4.845375e+00    3.556791e+01   -1.872928e-09
   1.005935e-04    7.237058e+06   -1.486636e+01    7.237073e+06    0.000000e+00    1.788529e+05   -1.909301e+02    4.845375e+00    3.556779e+01   -1.872898e-09
   1.011905e-04    7.173110e+06   -1.358774e+01    7.173124e+06    0.000000e+00    1.777972e+05   -1.903669e+02    4.845375e+00    3.556767e+01   -1.872868e-09
   1.017911e-04    7.109727e+06   -1.314516e+01    7.109740e+06    0.000000e+00    1.767477e+05   -1.898053e+02    4.845375e+00    3.556755e+01   -1.872838e-09
   1.023952e-04    7.046902e+06   -1.351506e+01    7.046916e+06    0.000000e+00    1.757044e+05   -1.892453e+02    4.845375e+00    3.556742e+01   -1.872808e-09
   1.030029e-04    6.984632e+06   -1.467696e+01    6.984647e+06    0.000000e+00    1.746673e+05   -1.886871e+02    4.845375e+00    3.556730e+01   -1.872777e-09
   1.036142e-04    6.922911e+06   -1.661017e+01    6.922928e+06    0.000000e+00    1.736363e+05   -1.881304e+02    4.845375e+00    3.556718e+01   -1.872747e-09
   1.042292e-04    6.861738e+06   -1.691954e+01    6.861755e+06    0.000000e+00    1.726113e+05   -1.875754e+02    4.845375e+00    3.556705e+01   -1.872716e-09
   1.048478e-04    6.801107e+06   -1.485003e+01    6.801121e+06    0.000000e+00    1.715924e+05   -1.870220e+02    4.845375e+00    3.556692e+01   -1.872685e-09
   1.054700e-04    6.741011e+06   -1.358571e+01    6.741024e+06    0.000000e+00    1.705795e+05   -1.864703e+02    4.845375e+00    3.556680e+01   -1.872654e-09
   1.060960e-04    6.681445e+06   -1.310640e+01    6.681458e+06    0.000000e+00    1.695726e+05   -1.859202e+02    4.845375e+00    3.556667e+01   -1.872622e-09
   1.067257e-04    6.622404e+06   -1.340115e+01    6.622418e+06    0.000000e+00    1.685717e+05   -1.853717e+02    4.845375e+00    3.556654e+01   -1.872591e-09
   1.073591e-04    6.563885e+06   -1.442256e+01    6.563899e+06    0.000000e+00    1.675766e+05   -1.848249e+02    4.845375e+00    3.556641e+01   -1.872559e-09
   1.079962e-04    6.505882e+06   -1.617957e+01    6.505898e+06    0.000000e+00    1.665874e+05   -1.842796e+02    4.845375e+00    3.556628e+01   -1.872527e-09
   1.086372e-04    6.448392e+06   -1.682240e+01    6.448409e+06    0.000000e+00    1.656041e+05   -1.837359e+02    4.845375e+00    3.556615e+01   -1.872495e-09
   1.092819e-04    6.391413e+06   -1.481647e+01    6.391428e+06    0.000000e+00    1.646265e+05   -1.831939e+02    4.845375e+00    3.556602e+01   -1.872463e-09
   1.099305e-04    6.334936e+06   -1.357697e+01    6.334950e+06    0.000000e+00    1.636547e+05   -1.826535e+02    4.845375e+00    3.556589e+01   -1.872430e-09
   1.105830e-04    6.278958e+06   -1.305861e+01    6.278971e+06    0.000000e+00    1.626887e+05   -1.821147e+02    4.845375e+00    3.556576e+01   -1.872397e-09
   1.112393e-04    6.223474e+06   -1.326901e+01    6.223487e+06    0.000000e+00    1.617283e+05   -1.815774e+02    4.845375e+00    3.556562e+01   -1.872365e-09
   1.118995e-04    6.168479e+06   -1.418087e+01    6.168493e+06    0.000000e+00    1.607736e+05   -1.810418e+02    4.845375e+00    3.556549e+01   -1.872331e-09
   1.125636e-04    6.113970e+06   -1.578512e+01    6.113985e+06    0.000000e+00    1.598246e+05   -1.805077e+02    4.845375e+00    3.556535e+01   -1.872298e-09
   1.132316e-04    6.059942e+06   -1.670709e+01    6.059959e+06    0.000000e+00    1.588811e+05   -1.799751e+02    4.845375e+00    3.556522e+01   -1.872265e-09
   1.139037e-04    6.006395e+06   -1.476497e+01    6.006410e+06    0.000000e+00    1.579432e+05   -1.794442e+02    4.845375e+00    3.556508e+01   -1.872231e-09
   1.145797e-04    5.953320e+06   -1.354175e+01    5.953334e+06    0.000000e+00    1.570109e+05   -1.789149e+02    4.845375e+00    3.556494e+01   -1.872197e-09
   1.152597e-04    5.900714e+06   -1.300604e+01    5.900727e+06    0.000000e+00    1.560840e+05   -1.783871e+02    4.845375e+00    3.556480e+01   -1.872163e-09
   1.159437e-04    5.848571e+06   -1.314933e+01    5.848584e+06    0.000000e+00    1.551626e+05   -1.778608e+02    4.845375e+00    3.556466e+01   -1.872129e-09
   1.166319e-04    5.796889e+06   -1.395036e+01    5.796903e+06    0.000000e+00    1.542467e+05   -1.773361e+02    4.845375e+00    3.556452e+01   -1.872094e-09
   1.173241e-04    5.745663e+06   -1.539798e+01    5.745678e+06    0.000000e+00    1.533361e+05   -1.768130e+02    4.845375e+00    3.556438e+01   -1.872060e-09
   1.180204e-04    5.694889e+06   -1.658307e+01    5.694906e+06    0.000000e+00    1.524310e+05   -1.762914e+02    4.845375e+00    3.556424e+01   -1.872025e-09
   1.187208e-04    5.644567e+06   -1.469705e+01    5.644582e+06    0.000000e+00    1.515311e+05   -1.757713e+02    4.845375e+00    3.556410e+01   -1.871990e-09
   1.194254e-04    5.594689e+06   -1.348990e+01    5.594703e+06    0.000000e+00    1.506366e+05   -1.752528e+02    4.845375e+00    3.556395e+01   -1.871954e-09
   1.201342e-04    5.545251e+06   -1.293730e+01    5.545264e+06    0.000000e+00    1.497474e+05   -1.747358e+02    4.845375e+00    3.556381e+01   -1.871919e-09
   1.208472e-04    5.496249e+06   -1.302232e+01    5.496262e+06    0.000000e+00    1.488634e+05   -1.742204e+02    4.845375e+00    3.556366e+01   -1.871883e-09
   1.215644e-04    5.447680e+06   -1.373485e+01    5.447694e+06    0.000000e+00    1.479846e+05   -1.737064e+02    4.845375e+00    3.556352e+01   -1.871847e-09
   1.222859e-04    5.399539e+06   -1.504164e+01    5.399554e+06    0.000000e+00    1.471110e+05   -1.731940e+02    4.845375e+00    3.556337e+01   -1.871811e-09
   1.230117e-04    5.351823e+06   -1.642807e+01    5.351840e+06    0.000000e+00    1.462425e+05   -1.726831e+02    4.845375e+00    3.556322e+01   -1.871775e-09
   1.237417e-04    5.304532e+06   -1.461365e+01    5.304547e+06    0.000000e+00    1.453792e+05   -1.721737e+02    4.845375e+00    3.556307e+01   -1.871738e-09
   1.244761e-04    5.257658e+06   -1.343086e+01    5.257672e+06    0.000000e+00    1.445210e+05   -1.716658e+02    4.845375e+00    3.556292e+01   -1.871701e-09
   1.252149e-04    5.211198e+06   -1.286390e+01    5.211211e+06    0.000000e+00    1.436678e+05   -1.711593e+02    4.845375e+00    3.556277e+01   -1.871664e-09
   1.259580e-04    5.165148e+06   -1.290185e+01    5.165161e+06    0.000000e+00    1.428197e+05   -1.706544e+02    4.845375e+00    3.556262e+01   -1.871627e-09
   1.267056e-04    5.119504e+06   -1.351636e+01    5.119517e+06    0.000000e+00    1.419766e+05   -1.701510e+02    4.845375e+00    3.556247e+01   -1.871590e-09
   1.274576e-04    5.074262e+06   -1.470646e+01    5.074277e+06    0.000000e+00    1.411384e+05   -1.696490e+02    4.845375e+00    3.556232e+01   -1.871552e-09
   1.282140e-04    5.029420e+06   -1.627404e+01    5.029436e+06    0.000000e+00    1.403052e+05   -1.691486e+02    4.845375e+00    3.556216e+01   -1.871514e-09
   1.289750e-04    4.984978e+06   -1.452171e+01    4.984992e+06    0.000000e+00    1.394769e+05   -1.686496e+02    4.845375e+00    3.556201e+01   -1.871476e-09
   1.297404e-04    4.940927e+06   -1.336128e+01    4.940941e+06    0.000000e+00    1.386535e+05   -1.681521e+02    4.845375e+00    3.556185e+01   -1.871437e-09
   1.305104e-04    4.897265e+06   -1.278287e+01    4.897278e+06    0.000000e+00    1.378350e+05   -1.676561e+02    4.845375e+00    3.556169e+01   -1.871399e-09
   1.312850e-04    4.853989e+06   -1.277435e+01    4.854001e+06    0.000000e+00    1.370213e+05   -1.671615e+02    4.845375e+00    3.556154e+01   -1.871360e-09
   1.320642e-04    4.811094e+06   -1.331556e+01    4.811107e+06    0.000000e+00    1.362123e+05   -1.666684e+02    4.845375e+00    3.556138e+01   -1.871321e-09
   1.328480e-04    4.768577e+06   -1.438776e+01    4.768592e+06    0.000000e+00    1.354082e+05   -1.661767e+02    4.845375e+00    3.556122e+01   -1.871282e-09
   1.336364e-04    4.726436e+06   -1.598583e+01    4.726452e+06    0.000000e+00    1.346088e+05   -1.656864e+02    4.845375e+00    3.556106e+01   -1.871242e-09
   1.344295e-04    4.684670e+06   -1.440482e+01    4.684684e+06    0.000000e+00    1.338141e+05   -1.651977e+02    4.845375e+00    3.556089e+01   -1.871203e-09
   1.352274e-04    4.643273e+06   -1.328309e+01    4.643286e+06    0.000000e+00    1.330241e+05   -1.647104e+02    4.845375e+00    3.556073e+01   -1.871163e-09
   1.360299e-04    4.602241e+06   -1.269404e+01    4.602253e+06    0.000000e+00    1.322388e+05   -1.642245e+02    4.845375e+00    3.556057e+01   -1.871122e-09
   1.368372e-04    4.561571e+06   -1.264330e+01    4.561583e+06    0.000000e+00    1.314581e+05   -1.637401e+02    4.845375e+00    3.556040e+01   -1.871082e-09
   1.376494e-04    4.521259e+06   -1.311127e+01    4.521273e+06    0.000000e+00    1.306820e+05   -1.632570e+02    4.845375e+00    3.556024e+01   -1.871041e-09
   1.384663e-04    4.481304e+06   -1.408435e+01    4.481318e+06    0.000000e+00    1.299105e+05   -1.627754e+02    4.845375e+00    3.556007e+01   -1.871000e-09
   1.392881e-04    4.441701e+06   -1.555580e+01    4.441716e+06    0.000000e+00    1.291435e+05   -1.622952e+02    4.845375e+00    3.555990e+01   -1.870959e-09
   1.401148e-04    4.402450e+06   -1.428199e+01    4.402464e+06    0.000000e+00    1.283811e+05   -1.618165e+02    4.845375e+00    3.555974e+01   -1.870918e-09
   1.409463e-04    4.363546e+06   -1.318306e+01    4.363560e+06    0.000000e+00    1.276232e+05   -1.613392e+02    4.845375e+00    3.555957e+01   -1.870876e-09
   1.417828e-04    4.324986e+06   -1.259789e+01    4.324998e+06    0.000000e+00    1.268697e+05   -1.608633e+02    4.845375e+00    3.555940e+01   -1.870834e-09
   1.426243e-04    4.286765e+06   -1.251629e+01    4.286778e+06    0.000000e+00    1.261207e+05   -1.603887e+02    4.845375e+00    3.555922e+01   -1.870792e-09
   1.434708e-04    4.248882e+06   -1.291724e+01    4.248895e+06    0.000000e+00    1.253761e+05   -1.599156e+02    4.845375e+00    3.555905e+01   -1.870750e-09
   1.443223e-04    4.211333e+06   -1.379629e+01    4.211347e+06    0.000000e+00    1.246359e+05   -1.594438e+02    4.845375e+00    3.555888e+01   -1.870707e-09
   1.451788e-04    4.174115e+06   -1.513880e+01    4.174130e+06    0.000000e+00    1.239000e+05   -1.589735e+02    4.845375e+00    3.555870e+01   -1.870664e-09
   1.460404e-04    4.137229e+06   -1.414853e+01    4.137243e+06    0.000000e+00    1.231685e+05   -1.585045e+02    4.845375e+00    3.555853e+01   -1.870621e-09
   1.469072e-04    4.100668e+06   -1.308394e+01    4.100681e+06    0.000000e+00    1.224413e+05   -1.580370e+02    4.845375e+00    3.555835e+01   -1.870578e-09
   1.477791e-04    4.064430e+06   -1.249842e+01    4.064442e+06    0.000000e+00    1.217184e+05   -1.575708e+02    4.845375e+00    3.555817e+01   -1.870534e-09
   1.486561e-04    4.028511e+06   -1.238468e+01    4.028524e+06    0.000000e+00    1.209998e+05   -1.571060e+02    4.845375e+00    3.555799e+01   -1.870490e-09
   1.495384e-04    3.992910e+06   -1.273151e+01    3.992923e+06    0.000000e+00    1.202854e+05   -1.566425e+02    4.845375e+00    3.555781e+01   -1.870446e-09
   1.504259e-04    3.957623e+06   -1.352222e+01    3.957636e+06    0.000000e+00    1.195752e+05   -1.561804e+02    4.845375e+00    3.555763e+01   -1.870401e-09
   1.513187e-04    3.922646e+06   -1.475643e+01    3.922661e+06    0.000000e+00    1.188693e+05   -1.557197e+02    4.845375e+00    3.555745e+01   -1.870357e-09
   1.522167e-04    3.887981e+06   -1.400435e+01    3.887995e+06    0.000000e+00    1.181674e+05   -1.552603e+02    4.845375e+00    3.555727e+01   -1.870312e-09
   1.531201e-04    3.853623e+06   -1.296700e+01    3.853636e+06    0.000000e+00    1.174698e+05   -1.548024e+02    4.845375e+00    3.555708e+01   -1.870266e-09
   1.540289e-04    3.819567e+06   -1.238879e+01    3.819580e+06    0.000000e+00    1.167762e+05   -1.543457e+02    4.845375e+00    3.555690e+01   -1.870221e-09
   1.549430e-04    3.785812e+06   -1.225026e+01    3.785825e+06    0.000000e+00    1.160867e+05   -1.538904e+02    4.845375e+00    3.555671e+01   -1.870175e-09
   1.558626e-04    3.752355e+06   -1.254200e+01    3.752368e+06    0.000000e+00    1.154013e+05   -1.534364e+02    4.845375e+00    3.555653e+01   -1.870129e-09
   1.567877e-04    3.719193e+06   -1.325792e+01    3.719207e+06    0.000000e+00    1.147200e+05   -1.529838e+02    4.845375e+00    3.555634e+01   -1.870083e-09
   1.577182e-04    3.686324e+06   -1.438463e+01    3.686338e+06    0.000000e+00    1.140426e+05   -1.525325e+02    4.845375e+00    3.555615e+01   -1.870036e-09
   1.586542e-04    3.653747e+06   -1.385032e+01    3.653760e+06    0.000000e+00    1.133693e+05   -1.520826e+02    4.845375e+00    3.555596e+01   -1.869989e-09
   1.595958e-04    3.621457e+06   -1.284598e+01    3.621470e+06    0.000000e+00    1.126999e+05   -1.516340e+02    4.845375e+00    3.555576e+01   -1.869942e-09
   1.605430e-04    3.589453e+06   -1.226981e+01    3.589466e+06    0.000000e+00    1.120345e+05   -1.511867e+02    4.845375e+00    3.555557e+01   -1.869895e-09
   1.614958e-04    3.557731e+06   -1.211120e+01    3.557744e+06    0.000000e+00    1.113730e+05   -1.507407e+02    4.845375e+00    3.555538e+01   -1.869847e-09
   1.624543e-04    3.526289e+06   -1.235971e+01    3.526302e+06    0.000000e+00    1.107154e+05   -1.502960e+02    4.845375e+00    3.555518e+01   -1.869799e-09
   1.634185e-04    3.495125e+06   -1.300582e+01    3.495138e+06    0.000000e+00    1.100617e+05   -1.498527e+02    4.845375e+00    3.555498e+01   -1.869751e-09
   1.643883e-04    3.464235e+06   -1.403672e+01    3.464249e+06    0.000000e+00    1.094118e+05   -1.494106e+02    4.845375e+00    3.555479e+01   -1.869702e-09
   1.653640e-04    3.433620e+06   -1.369312e+01    3.433633e+06    0.000000e+00    1.087658e+05   -1.489699e+02    4.845375e+00    3.555459e+01   -1.869653e-09
   1.663454e-04    3.403276e+06   -1.271690e+01    3.403288e+06    0.000000e+00    1.081236e+05   -1.485305e+02    4.845375e+00    3.555439e+01   -1.869604e-09
   1.673327e-04    3.373199e+06   -1.214829e+01    3.373211e+06    0.000000e+00    1.074852e+05   -1.480923e+02    4.845375e+00    3.555419e+01   -1.869555e-09
   1.683258e-04    3.343388e+06   -1.197504e+01    3.343400e+06    0.000000e+00    1.068505e+05   -1.476555e+02    4.845375e+00    3.555398e+01   -1.869505e-09
   1.693248e-04    3.313840e+06   -1.218033e+01    3.313852e+06    0.000000e+00    1.062196e+05   -1.472199e+02    4.845375e+00    3.555378e+01   -1.869455e-09
   1.703297e-04    3.284552e+06   -1.276122e+01    3.284565e+06    0.000000e+00    1.055924e+05   -1.467856e+02    4.845375e+00    3.555358e+01   -1.869405e-09
   1.713406e-04    3.255523e+06   -1.371029e+01    3.255537e+06    0.000000e+00    1.049690e+05   -1.463526e+02    4.845375e+00    3.555337e+01   -1.869354e-09
   1.723575e-04    3.226751e+06   -1.351970e+01    3.226765e+06    0.000000e+00    1.043492e+05   -1.459209e+02    4.845375e+00    3.555316e+01   -1.869303e-09
   1.733804e-04    3.198235e+06   -1.258082e+01    3.198247e+06    0.000000e+00    1.037330e+05   -1.454905e+02    4.845375e+00    3.555295e+01   -1.869252e-09
   1.744094e-04    3.169970e+06   -1.202141e+01    3.169982e+06    0.000000e+00    1.031205e+05   -1.450613e+02    4.845375e+00    3.555274e+01   -1.869200e-09
   1.754445e-04    3.141954e+06   -1.183205e+01    3.141966e+06    0.000000e+00    1.025116e+05   -1.446334e+02    4.845375e+00    3.555253e+01   -1.869148e-09
   1.764858e-04    3.114186e+06   -1.200780e+01    3.114198e+06    0.000000e+00    1.019063e+05   -1.442067e+02    4.845375e+00    3.555232e+01   -1.869096e-09
   1.775332e-04    3.086662e+06   -1.252611e+01    3.086675e+06    0.000000e+00    1.013045e+05   -1.437813e+02    4.845375e+00    3.555211e+01   -1.869044e-09
   1.785869e-04    3.059382e+06   -1.339117e+01    3.059395e+06    0.000000e+00    1.007064e+05   -1.433572e+02    4.845375e+00    3.555189e+01   -1.868991e-09
   1.796468e-04    3.032343e+06   -1.334420e+01    3.032356e+06    0.000000e+00    1.001117e+05   -1.429343e+02    4.845375e+00    3.555168e+01   -1.868938e-09
   1.807130e-04    3.005544e+06   -1.244151e+01    3.005556e+06    0.000000e+00    9.952054e+04   -1.425127e+02    4.845375e+00    3.555146e+01   -1.868885e-09
   1.817855e-04    2.978982e+06   -1.188955e+01    2.978993e+06    0.000000e+00    9.893288e+04   -1.420923e+02    4.845375e+00    3.555124e+01   -1.868831e-09
   1.828644e-04    2.952653e+06   -1.168938e+01    2.952665e+06    0.000000e+00    9.834869e+04   -1.416732e+02    4.845375e+00    3.555102e+01   -1.868777e-09
   1.839497e-04    2.926557e+06   -1.182857e+01    2.926569e+06    0.000000e+00    9.776794e+04   -1.412552e+02    4.845375e+00    3.555080e+01   -1.868723e-09
   1.850414e-04    2.900692e+06   -1.229856e+01    2.900704e+06    0.000000e+00    9.719062e+04   -1.408386e+02    4.845375e+00    3.555058e+01   -1.868668e-09
   1.861396e-04    2.875054e+06   -1.309468e+01    2.875067e+06    0.000000e+00    9.661670e+04   -1.404231e+02    4.845375e+00    3.555035e+01   -1.868613e-09
   1.872443e-04    2.849644e+06   -1.316241e+01    2.849657e+06    0.000000e+00    9.604617e+04   -1.400089e+02    4.845375e+00    3.555013e+01   -1.868558e-09
   1.883556e-04    2.824459e+06   -1.228955e+01    2.824471e+06    0.000000e+00    9.547901e+04   -1.395959e+02    4.845375e+00    3.554990e+01   -1.868502e-09
   1.894735e-04    2.799497e+06   -1.175459e+01    2.799508e+06    0.000000e+00    9.491519e+04   -1.391841e+02    4.845375e+00    3.554967e+01   -1.868446e-09
   1.905980e-04    2.774754e+06   -1.154464e+01    2.774766e+06    0.000000e+00    9.435470e+04   -1.387735e+02    4.845375e+00    3.554944e+01   -1.868390e-09
   1.917292e-04    2.750230e+06   -1.165554e+01    2.750242e+06    0.000000e+00    9.379752e+04   -1.383642e+02    4.845375e+00    3.554921e+01   -1.868333e-09
   1.928671e-04    2.725922e+06   -1.207804e+01    2.725934e+06    0.000000e+00    9.324362e+04   -1.379560e+02    4.845375e+00    3.554898e+01   -1.868276e-09
   1.940117e-04    2.701829e+06   -1.280366e+01    2.701842e+06    0.000000e+00    9.269300e+04   -1.375491e+02    4.845375e+00    3.554875e+01   -1.868219e-09
   1.951632e-04    2.677949e+06   -1.297527e+01    2.677962e+06    0.000000e+00    9.214562e+04   -1.371433e+02    4.845375e+00    3.554851e+01   -1.868161e-09
   1.963215e-04    2.654281e+06   -1.213643e+01    2.654293e+06    0.000000e+00    9.160147e+04   -1.367388e+02    4.845375e+00    3.554828e+01   -1.868103e-09
   1.974866e-04    2.630822e+06   -1.161263e+01    2.630834e+06    0.000000e+00    9.106053e+04   -1.363354e+02    4.845375e+00    3.554804e+01   -1.868045e-09
   1.986587e-04    2.607570e+06   -1.139801e+01    2.607581e+06    0.000000e+00    9.052278e+04   -1.359333e+02    4.845375e+00    3.554780e+01   -1.867987e-09
   1.998377e-04    2.584523e+06   -1.148791e+01    2.584535e+06    0.000000e+00    8.998821e+04   -1.355323e+02    4.845375e+00    3.554756e+01   -1.867928e-09
   2.010238e-04    2.561679e+06   -1.186355e+01    2.561691e+06    0.000000e+00    8.945678e+04   -1.351325e+02    4.845375e+00    3.554732e+01   -1.867868e-09
   2.022168e-04    2.539037e+06   -1.252837e+01    2.539050e+06    0.000000e+00    8.892850e+04   -1.347339e+02    4.845375e+00    3.554708e+01   -1.867808e-09
   2.034170e-04    2.516596e+06   -1.278376e+01    2.516608e+06    0.000000e+00    8.840333e+04   -1.343364e+02    4.845375e+00    3.554683e+01   -1.867748e-09
   2.046242e-04    2.494353e+06   -1.197702e+01    2.494365e+06    0.000000e+00    8.788126e+04   -1.339402e+02    4.845375e+00    3.554659e+01   -1.867688e-09
