# All units in Hartree [AU] if not specified
# Convergence: Err(φ)=4.347e-11, Err(n_e)=8.808e-11, Err(IET)=9.402e-13, Q_net=2.412e-07
# {"name":"Ar", "Z":18, "Zstar":0.09065402376484144, "A":39.948,  "μ[AU]": -3.6375962978e-02, "Te[AU]": 1.041e-02, "Ti[AU]": 1.041e-02, "rs[AU]": 1.372e+01 }
   r[AU]           n[AU]           nf[AU]          nb[AU]          n_ion[AU]       φtot[AU]        δVxc/δρ[Au]     U_ei[AU]        U_ii[AU]        g_ii            
   1.000000e-04    7.298703e+06    7.686082e+00    7.298695e+06    0.000000e+00    1.799153e+05   -1.434897e+02   -1.717256e+01    3.465929e-01   -3.901556e-02
   1.005935e-04    7.234200e+06    6.208144e+00    7.234193e+06    0.000000e+00    1.788533e+05   -1.430664e+02   -1.480186e+01    3.465918e-01   -3.901493e-02
   1.011905e-04    7.170262e+06    1.038230e+00    7.170261e+06    0.000000e+00    1.777976e+05   -1.426442e+02   -4.169667e+00    3.465907e-01   -3.901429e-02
   1.017911e-04    7.106901e+06    7.219975e+00    7.106894e+06    0.000000e+00    1.767481e+05   -1.422234e+02   -1.644185e+01    3.465895e-01   -3.901365e-02
   1.023952e-04    7.044094e+06    6.475287e+00    7.044087e+06    0.000000e+00    1.757048e+05   -1.418037e+02   -1.524306e+01    3.465884e-01   -3.901301e-02
   1.030029e-04    6.981835e+06   -3.687460e-02    6.981835e+06    0.000000e+00    1.746676e+05   -1.413853e+02    5.437742e-01    3.465872e-01   -3.901236e-02
   1.036142e-04    6.920139e+06    6.693291e+00    6.920133e+06    0.000000e+00    1.736366e+05   -1.409682e+02   -1.559854e+01    3.465861e-01   -3.901171e-02
   1.042292e-04    6.858982e+06    6.662537e+00    6.858976e+06    0.000000e+00    1.726117e+05   -1.405523e+02   -1.554866e+01    3.465849e-01   -3.901106e-02
   1.048478e-04    6.798359e+06    3.448637e-02    6.798359e+06    0.000000e+00    1.715928e+05   -1.401375e+02   -2.999384e-01    3.465838e-01   -3.901040e-02
   1.054700e-04    6.738284e+06    6.122109e+00    6.738278e+06    0.000000e+00    1.705799e+05   -1.397241e+02   -1.465870e+01    3.465826e-01   -3.900974e-02
   1.060960e-04    6.678735e+06    6.775951e+00    6.678728e+06    0.000000e+00    1.695730e+05   -1.393119e+02   -1.573152e+01    3.465814e-01   -3.900907e-02
   1.067257e-04    6.619705e+06    9.827870e-01    6.619704e+06    0.000000e+00    1.685720e+05   -1.389008e+02   -4.007288e+00    3.465802e-01   -3.900840e-02
   1.073591e-04    6.561207e+06    5.516961e+00    6.561202e+06    0.000000e+00    1.675769e+05   -1.384910e+02   -1.363232e+01    3.465790e-01   -3.900772e-02
   1.079962e-04    6.503223e+06    6.801474e+00    6.503216e+06    0.000000e+00    1.665877e+05   -1.380824e+02   -1.577313e+01    3.465778e-01   -3.900705e-02
   1.086372e-04    6.445745e+06    1.812736e+00    6.445743e+06    0.000000e+00    1.656044e+05   -1.376750e+02   -6.219856e+00    3.465766e-01   -3.900636e-02
   1.092819e-04    6.388783e+06    4.853537e+00    6.388778e+06    0.000000e+00    1.646268e+05   -1.372688e+02   -1.246469e+01    3.465754e-01   -3.900568e-02
   1.099305e-04    6.332322e+06    6.754759e+00    6.332316e+06    0.000000e+00    1.636551e+05   -1.368638e+02   -1.569755e+01    3.465742e-01   -3.900499e-02
   1.105830e-04    6.276355e+06    2.518883e+00    6.276353e+06    0.000000e+00    1.626890e+05   -1.364600e+02   -7.857094e+00    3.465730e-01   -3.900429e-02
   1.112393e-04    6.220888e+06    4.173064e+00    6.220884e+06    0.000000e+00    1.617287e+05   -1.360574e+02   -1.121335e+01    3.465717e-01   -3.900359e-02
   1.118995e-04    6.165912e+06    6.641159e+00    6.165906e+06    0.000000e+00    1.607740e+05   -1.356560e+02   -1.551384e+01    3.465705e-01   -3.900289e-02
   1.125636e-04    6.111416e+06    3.136246e+00    6.111413e+06    0.000000e+00    1.598249e+05   -1.352557e+02   -9.173077e+00    3.465692e-01   -3.900218e-02
   1.132316e-04    6.057405e+06    3.443539e+00    6.057402e+06    0.000000e+00    1.588815e+05   -1.348566e+02   -9.797298e+00    3.465680e-01   -3.900147e-02
   1.139037e-04    6.003874e+06    6.457315e+00    6.003868e+06    0.000000e+00    1.579436e+05   -1.344588e+02   -1.521359e+01    3.465667e-01   -3.900076e-02
   1.145797e-04    5.950810e+06    3.637482e+00    5.950807e+06    0.000000e+00    1.570112e+05   -1.340620e+02   -1.018181e+01    3.465654e-01   -3.900004e-02
   1.152597e-04    5.898217e+06    2.695157e+00    5.898215e+06    0.000000e+00    1.560844e+05   -1.336665e+02   -8.242355e+00    3.465642e-01   -3.899931e-02
   1.159437e-04    5.846093e+06    6.225218e+00    5.846087e+06    0.000000e+00    1.551630e+05   -1.332722e+02   -1.483038e+01    3.465629e-01   -3.899858e-02
   1.166319e-04    5.794425e+06    4.071607e+00    5.794420e+06    0.000000e+00    1.542470e+05   -1.328789e+02   -1.102137e+01    3.465616e-01   -3.899785e-02
   1.173241e-04    5.743212e+06    1.930452e+00    5.743210e+06    0.000000e+00    1.533365e+05   -1.324869e+02   -6.504957e+00    3.465603e-01   -3.899711e-02
   1.180204e-04    5.692458e+06    5.948751e+00    5.692452e+06    0.000000e+00    1.524313e+05   -1.320960e+02   -1.436791e+01    3.465590e-01   -3.899637e-02
   1.187208e-04    5.642147e+06    4.405604e+00    5.642143e+06    0.000000e+00    1.515315e+05   -1.317063e+02   -1.164752e+01    3.465577e-01   -3.899563e-02
   1.194254e-04    5.592279e+06    1.128356e+00    5.592278e+06    0.000000e+00    1.506370e+05   -1.313177e+02   -4.427904e+00    3.465563e-01   -3.899488e-02
   1.201342e-04    5.542860e+06    5.604892e+00    5.542854e+06    0.000000e+00    1.497477e+05   -1.309303e+02   -1.378311e+01    3.465550e-01   -3.899412e-02
   1.208472e-04    5.493871e+06    4.677034e+00    5.493867e+06    0.000000e+00    1.488637e+05   -1.305440e+02   -1.214539e+01    3.465536e-01   -3.899336e-02
   1.215644e-04    5.445312e+06    3.241991e-01    5.445312e+06    0.000000e+00    1.479849e+05   -1.301588e+02   -1.770358e+00    3.465523e-01   -3.899260e-02
   1.222859e-04    5.397192e+06    5.239042e+00    5.397187e+06    0.000000e+00    1.471113e+05   -1.297748e+02   -1.314882e+01    3.465509e-01   -3.899183e-02
   1.230117e-04    5.349491e+06    4.870040e+00    5.349486e+06    0.000000e+00    1.462429e+05   -1.293920e+02   -1.249443e+01    3.465496e-01   -3.899106e-02
   1.237417e-04    5.302207e+06   -5.108925e-01    5.302207e+06    0.000000e+00    1.453796e+05   -1.290102e+02    5.437742e-01    3.465482e-01   -3.899028e-02
   1.244761e-04    5.255351e+06    4.812187e+00    5.255346e+06    0.000000e+00    1.445213e+05   -1.286296e+02   -1.238973e+01    3.465468e-01   -3.898950e-02
   1.252149e-04    5.208904e+06    4.981860e+00    5.208899e+06    0.000000e+00    1.436682e+05   -1.282501e+02   -1.269399e+01    3.465454e-01   -3.898871e-02
   1.259580e-04    5.162863e+06    1.602366e-01    5.162863e+06    0.000000e+00    1.428200e+05   -1.278717e+02   -1.034372e+00    3.465440e-01   -3.898792e-02
   1.267056e-04    5.117237e+06    4.359194e+00    5.117233e+06    0.000000e+00    1.419769e+05   -1.274944e+02   -1.156140e+01    3.465426e-01   -3.898713e-02
   1.274576e-04    5.072011e+06    5.045072e+00    5.072006e+06    0.000000e+00    1.411388e+05   -1.271183e+02   -1.280682e+01    3.465412e-01   -3.898633e-02
   1.282140e-04    5.027180e+06    8.522440e-01    5.027179e+06    0.000000e+00    1.403056e+05   -1.267432e+02   -3.614105e+00    3.465398e-01   -3.898552e-02
   1.289750e-04    4.982752e+06    3.878571e+00    4.982748e+06    0.000000e+00    1.394773e+05   -1.263693e+02   -1.065156e+01    3.465383e-01   -3.898471e-02
   1.297404e-04    4.938715e+06    5.040527e+00    4.938710e+06    0.000000e+00    1.386539e+05   -1.259965e+02   -1.279876e+01    3.465369e-01   -3.898390e-02
   1.305104e-04    4.895062e+06    1.456958e+00    4.895060e+06    0.000000e+00    1.378353e+05   -1.256248e+02   -5.320733e+00    3.465355e-01   -3.898308e-02
   1.312850e-04    4.851800e+06    3.359126e+00    4.851797e+06    0.000000e+00    1.370216e+05   -1.252541e+02   -9.627770e+00    3.465340e-01   -3.898225e-02
   1.320642e-04    4.808921e+06    4.989209e+00    4.808916e+06    0.000000e+00    1.362127e+05   -1.248846e+02   -1.270719e+01    3.465325e-01   -3.898142e-02
   1.328480e-04    4.766415e+06    1.977708e+00    4.766413e+06    0.000000e+00    1.354085e+05   -1.245162e+02   -6.617919e+00    3.465311e-01   -3.898059e-02
   1.336364e-04    4.724289e+06    2.820696e+00    4.724286e+06    0.000000e+00    1.346091e+05   -1.241488e+02   -8.511628e+00    3.465296e-01   -3.897975e-02
   1.344295e-04    4.682537e+06    4.886799e+00    4.682532e+06    0.000000e+00    1.338145e+05   -1.237826e+02   -1.252452e+01    3.465281e-01   -3.897891e-02
   1.352274e-04    4.641149e+06    2.421743e+00    4.641146e+06    0.000000e+00    1.330245e+05   -1.234173e+02   -7.641077e+00    3.465266e-01   -3.897806e-02
   1.360299e-04    4.600128e+06    2.249102e+00    4.600126e+06    0.000000e+00    1.322391e+05   -1.230532e+02   -7.251066e+00    3.465251e-01   -3.897720e-02
   1.368372e-04    4.559473e+06    4.730624e+00    4.559469e+06    0.000000e+00    1.314584e+05   -1.226902e+02   -1.224310e+01    3.465235e-01   -3.897634e-02
   1.376494e-04    4.519173e+06    2.793090e+00    4.519170e+06    0.000000e+00    1.306823e+05   -1.223282e+02   -8.452935e+00    3.465220e-01   -3.897548e-02
   1.384663e-04    4.479230e+06    1.662202e+00    4.479228e+06    0.000000e+00    1.299108e+05   -1.219673e+02   -5.846604e+00    3.465205e-01   -3.897461e-02
   1.392881e-04    4.439643e+06    4.534762e+00    4.439639e+06    0.000000e+00    1.291439e+05   -1.216075e+02   -1.188554e+01    3.465189e-01   -3.897374e-02
   1.401148e-04    4.400403e+06    3.096466e+00    4.400399e+06    0.000000e+00    1.283814e+05   -1.212487e+02   -9.090777e+00    3.465174e-01   -3.897286e-02
   1.409463e-04    4.361508e+06    1.062555e+00    4.361507e+06    0.000000e+00    1.276235e+05   -1.208910e+02   -4.240055e+00    3.465158e-01   -3.897197e-02
   1.417828e-04    4.322962e+06    4.305449e+00    4.322958e+06    0.000000e+00    1.268700e+05   -1.205344e+02   -1.146160e+01    3.465142e-01   -3.897108e-02
   1.426243e-04    4.284752e+06    3.342313e+00    4.284749e+06    0.000000e+00    1.261210e+05   -1.201788e+02   -9.593726e+00    3.465126e-01   -3.897019e-02
   1.434708e-04    4.246879e+06    4.358762e-01    4.246878e+06    0.000000e+00    1.253764e+05   -1.198242e+02   -2.208519e+00    3.465110e-01   -3.896928e-02
   1.443223e-04    4.209346e+06    4.027372e+00    4.209342e+06    0.000000e+00    1.246362e+05   -1.194707e+02   -1.093715e+01    3.465094e-01   -3.896838e-02
   1.451788e-04    4.172141e+06    3.516530e+00    4.172138e+06    0.000000e+00    1.239004e+05   -1.191182e+02   -9.942658e+00    3.465078e-01   -3.896747e-02
   1.460404e-04    4.135262e+06   -1.935881e-01    4.135262e+06    0.000000e+00    1.231689e+05   -1.187668e+02    5.437742e-01    3.465062e-01   -3.896655e-02
   1.469072e-04    4.098716e+06    3.727951e+00    4.098712e+06    0.000000e+00    1.224417e+05   -1.184164e+02   -1.035950e+01    3.465046e-01   -3.896563e-02
   1.477791e-04    4.062488e+06    3.647107e+00    4.062485e+06    0.000000e+00    1.217188e+05   -1.180671e+02   -1.020093e+01    3.465029e-01   -3.896470e-02
   1.486561e-04    4.026578e+06   -3.216444e-01    4.026578e+06    0.000000e+00    1.210001e+05   -1.177187e+02    5.437742e-01    3.465013e-01   -3.896377e-02
   1.495384e-04    3.990992e+06    3.386618e+00    3.990988e+06    0.000000e+00    1.202858e+05   -1.173715e+02   -9.683064e+00    3.464996e-01   -3.896283e-02
   1.504259e-04    3.955717e+06    3.714454e+00    3.955713e+06    0.000000e+00    1.195756e+05   -1.170252e+02   -1.033327e+01    3.464980e-01   -3.896188e-02
   1.513187e-04    3.920750e+06    2.543058e-01    3.920750e+06    0.000000e+00    1.188696e+05   -1.166799e+02   -1.473807e+00    3.464963e-01   -3.896093e-02
   1.522167e-04    3.886098e+06    3.027544e+00    3.886095e+06    0.000000e+00    1.181678e+05   -1.163357e+02   -8.947537e+00    3.464946e-01   -3.895998e-02
   1.531201e-04    3.851751e+06    3.739534e+00    3.851747e+06    0.000000e+00    1.174701e+05   -1.159925e+02   -1.038193e+01    3.464929e-01   -3.895902e-02
   1.540289e-04    3.817703e+06    7.648164e-01    3.817702e+06    0.000000e+00    1.167765e+05   -1.156503e+02   -3.340328e+00    3.464912e-01   -3.895805e-02
   1.549430e-04    3.783961e+06    2.640707e+00    3.783958e+06    0.000000e+00    1.160871e+05   -1.153091e+02   -8.124186e+00    3.464894e-01   -3.895708e-02
   1.558626e-04    3.750516e+06    3.725266e+00    3.750512e+06    0.000000e+00    1.154017e+05   -1.149690e+02   -1.035429e+01    3.464877e-01   -3.895610e-02
   1.567877e-04    3.717363e+06    1.203069e+00    3.717362e+06    0.000000e+00    1.147203e+05   -1.146298e+02   -4.637222e+00    3.464860e-01   -3.895511e-02
   1.577182e-04    3.684507e+06    2.234526e+00    3.684505e+06    0.000000e+00    1.140430e+05   -1.142916e+02   -7.217659e+00    3.464842e-01   -3.895412e-02
   1.586542e-04    3.651941e+06    3.658974e+00    3.651937e+06    0.000000e+00    1.133696e+05   -1.139544e+02   -1.022442e+01    3.464825e-01   -3.895313e-02
   1.595958e-04    3.619660e+06    1.578835e+00    3.619658e+06    0.000000e+00    1.127003e+05   -1.136182e+02   -5.635541e+00    3.464807e-01   -3.895213e-02
   1.605430e-04    3.587666e+06    1.803878e+00    3.587664e+06    0.000000e+00    1.120348e+05   -1.132830e+02   -6.198200e+00    3.464789e-01   -3.895112e-02
   1.614958e-04    3.555956e+06    3.564705e+00    3.555953e+06    0.000000e+00    1.113733e+05   -1.129489e+02   -1.003867e+01    3.464771e-01   -3.895011e-02
   1.624543e-04    3.524524e+06    1.891716e+00    3.524522e+06    0.000000e+00    1.107158e+05   -1.126156e+02   -6.411396e+00    3.464753e-01   -3.894909e-02
   1.634185e-04    3.493370e+06    1.355441e+00    3.493368e+06    0.000000e+00    1.100620e+05   -1.122834e+02   -5.052153e+00    3.464735e-01   -3.894806e-02
   1.643883e-04    3.462494e+06    3.424829e+00    3.462490e+06    0.000000e+00    1.094122e+05   -1.119522e+02   -9.759532e+00    3.464717e-01   -3.894703e-02
   1.653640e-04    3.431887e+06    2.152911e+00    3.431885e+06    0.000000e+00    1.087662e+05   -1.116219e+02   -7.029336e+00    3.464698e-01   -3.894599e-02
   1.663454e-04    3.401551e+06    8.819820e-01    3.401550e+06    0.000000e+00    1.081240e+05   -1.112926e+02   -3.705245e+00    3.464680e-01   -3.894495e-02
   1.673327e-04    3.371486e+06    3.257438e+00    3.371483e+06    0.000000e+00    1.074855e+05   -1.109643e+02   -9.421593e+00    3.464661e-01   -3.894390e-02
   1.683258e-04    3.341684e+06    2.359953e+00    3.341682e+06    0.000000e+00    1.068509e+05   -1.106369e+02   -7.502475e+00    3.464642e-01   -3.894284e-02
   1.693248e-04    3.312145e+06    4.084186e-01    3.312144e+06    0.000000e+00    1.062200e+05   -1.103105e+02   -2.104189e+00    3.464624e-01   -3.894178e-02
   1.703297e-04    3.282870e+06    3.062847e+00    3.282867e+06    0.000000e+00    1.055928e+05   -1.099851e+02   -9.021317e+00    3.464605e-01   -3.894071e-02
   1.713406e-04    3.253852e+06    2.530582e+00    3.253849e+06    0.000000e+00    1.049693e+05   -1.096606e+02   -7.883034e+00    3.464586e-01   -3.893963e-02
   1.723575e-04    3.225088e+06   -8.570098e-02    3.225088e+06    0.000000e+00    1.043495e+05   -1.093371e+02    5.437742e-01    3.464567e-01   -3.893855e-02
   1.733804e-04    3.196583e+06    2.835081e+00    3.196580e+06    0.000000e+00    1.037333e+05   -1.090146e+02   -8.542000e+00    3.464547e-01   -3.893746e-02
   1.744094e-04    3.168327e+06    2.640294e+00    3.168324e+06    0.000000e+00    1.031208e+05   -1.086930e+02   -8.123291e+00    3.464528e-01   -3.893637e-02
   1.754445e-04    3.140318e+06   -5.813906e-01    3.140318e+06    0.000000e+00    1.025119e+05   -1.083723e+02    5.437742e-01    3.464508e-01   -3.893527e-02
   1.764858e-04    3.112562e+06    2.588040e+00    3.112560e+06    0.000000e+00    1.019066e+05   -1.080526e+02   -8.008978e+00    3.464489e-01   -3.893416e-02
   1.775332e-04    3.085049e+06    2.720387e+00    3.085047e+06    0.000000e+00    1.013049e+05   -1.077338e+02   -8.296788e+00    3.464469e-01   -3.893305e-02
   1.785869e-04    3.057776e+06   -1.027691e-01    3.057776e+06    0.000000e+00    1.007067e+05   -1.074160e+02    5.437742e-01    3.464449e-01   -3.893193e-02
   1.796468e-04    3.030750e+06    2.312115e+00    3.030747e+06    0.000000e+00    1.001120e+05   -1.070991e+02   -7.394597e+00    3.464429e-01   -3.893080e-02
   1.807130e-04    3.003960e+06    2.752564e+00    3.003957e+06    0.000000e+00    9.952089e+04   -1.067832e+02   -8.365693e+00    3.464409e-01   -3.892967e-02
   1.817855e-04    2.977404e+06    3.105239e-01    2.977403e+06    0.000000e+00    9.893322e+04   -1.064681e+02   -1.713830e+00    3.464389e-01   -3.892853e-02
   1.828644e-04    2.951086e+06    2.018300e+00    2.951084e+06    0.000000e+00    9.834903e+04   -1.061541e+02   -6.713981e+00    3.464369e-01   -3.892738e-02
   1.839497e-04    2.925001e+06    2.752712e+00    2.924998e+06    0.000000e+00    9.776828e+04   -1.058409e+02   -8.366013e+00    3.464348e-01   -3.892622e-02
   1.850414e-04    2.899143e+06    6.740495e-01    2.899142e+06    0.000000e+00    9.719096e+04   -1.055286e+02   -3.046043e+00    3.464328e-01   -3.892506e-02
   1.861396e-04    2.873516e+06    1.705682e+00    2.873515e+06    0.000000e+00    9.661704e+04   -1.052173e+02   -5.955533e+00    3.464307e-01   -3.892389e-02
   1.872443e-04    2.848116e+06    2.720901e+00    2.848114e+06    0.000000e+00    9.604652e+04   -1.049070e+02   -8.297892e+00    3.464286e-01   -3.892272e-02
   1.883556e-04    2.822938e+06    9.907723e-01    2.822937e+06    0.000000e+00    9.547935e+04   -1.045975e+02   -4.030951e+00    3.464265e-01   -3.892154e-02
   1.894735e-04    2.797984e+06    1.376171e+00    2.797983e+06    0.000000e+00    9.491554e+04   -1.042889e+02   -5.107434e+00    3.464244e-01   -3.892035e-02
   1.905980e-04    2.773252e+06    2.654069e+00    2.773249e+06    0.000000e+00    9.435505e+04   -1.039813e+02   -8.153043e+00    3.464223e-01   -3.891915e-02
   1.917292e-04    2.748736e+06    1.253202e+00    2.748734e+06    0.000000e+00    9.379786e+04   -1.036745e+02   -4.775358e+00    3.464202e-01   -3.891795e-02
   1.928671e-04    2.724437e+06    1.031486e+00    2.724436e+06    0.000000e+00    9.324397e+04   -1.033686e+02   -4.150129e+00    3.464180e-01   -3.891674e-02
   1.940117e-04    2.700355e+06    2.562125e+00    2.700352e+06    0.000000e+00    9.269334e+04   -1.030637e+02   -7.952369e+00    3.464159e-01   -3.891552e-02
   1.951632e-04    2.676483e+06    1.472368e+00    2.676482e+06    0.000000e+00    9.214596e+04   -1.027597e+02   -5.360734e+00    3.464137e-01   -3.891430e-02
   1.963215e-04    2.652822e+06    6.738620e-01    2.652822e+06    0.000000e+00    9.160181e+04   -1.024565e+02   -3.045427e+00    3.464115e-01   -3.891307e-02
   1.974866e-04    2.629373e+06    2.437257e+00    2.629371e+06    0.000000e+00    9.106087e+04   -1.021543e+02   -7.675852e+00    3.464093e-01   -3.891183e-02
   1.986587e-04    2.606129e+06    1.655190e+00    2.606127e+06    0.000000e+00    9.052312e+04   -1.018529e+02   -5.829083e+00    3.464071e-01   -3.891058e-02
   1.998377e-04    2.583089e+06    3.071144e-01    2.583089e+06    0.000000e+00    8.998855e+04   -1.015524e+02   -1.699727e+00    3.464049e-01   -3.890933e-02
   2.010238e-04    2.560256e+06    2.295444e+00    2.560254e+06    0.000000e+00    8.945713e+04   -1.012529e+02   -7.356608e+00    3.464027e-01   -3.890807e-02
   2.022168e-04    2.537623e+06    1.795065e+00    2.537621e+06    0.000000e+00    8.892884e+04   -1.009542e+02   -6.176543e+00    3.464004e-01   -3.890680e-02
   2.034170e-04    2.515188e+06   -7.686691e-02    2.515188e+06    0.000000e+00    8.840367e+04   -1.006563e+02    5.437743e-01    3.463982e-01   -3.890552e-02
   2.046242e-04    2.492956e+06    2.127209e+00    2.492953e+06    0.000000e+00    8.788160e+04   -1.003594e+02   -6.969695e+00    3.463959e-01   -3.890424e-02
