# All units in Hartree [AU] if not specified
# Convergence: Err(φ)=3.980e-11, Err(n_e)=9.784e-11, Err(IET)=9.440e-13, Q_net=4.025e-07
# {"name":"Ar", "Z":18, "Zstar":0.5546141977292578, "A":39.948,  "μ[AU]": -1.3176323721e-01, "Te[AU]": 4.057e-02, "Ti[AU]": 4.057e-02, "rs[AU]": 1.372e+01 }
   r[AU]           n[AU]           nf[AU]          nb[AU]          n_ion[AU]       φtot[AU]        δVxc/δρ[Au]     U_ei[AU]        U_ii[AU]        g_ii            
   1.000000e-04    7.298702e+06    9.081142e-02    7.298702e+06    0.000000e+00    1.799154e+05   -1.434897e+02   -8.267560e-01    1.257663e+01   -1.359548e-07
   1.005935e-04    7.234200e+06    6.429822e-01    7.234200e+06    0.000000e+00    1.788534e+05   -1.430664e+02   -3.108117e+00    1.257659e+01   -1.359526e-07
   1.011905e-04    7.170265e+06   -2.835196e+00    7.170268e+06    0.000000e+00    1.777977e+05   -1.426442e+02    2.274915e+00    1.257655e+01   -1.359504e-07
   1.017911e-04    7.106896e+06   -4.114623e+00    7.106901e+06    0.000000e+00    1.767482e+05   -1.422233e+02    2.274915e+00    1.257650e+01   -1.359482e-07
   1.023952e-04    7.044093e+06    9.283743e-02    7.044093e+06    0.000000e+00    1.757049e+05   -1.418037e+02   -8.385321e-01    1.257646e+01   -1.359461e-07
   1.030029e-04    6.981841e+06    3.243965e-01    6.981841e+06    0.000000e+00    1.746677e+05   -1.413854e+02   -1.936510e+00    1.257642e+01   -1.359438e-07
   1.036142e-04    6.920136e+06   -3.326571e+00    6.920139e+06    0.000000e+00    1.736367e+05   -1.409682e+02    2.274915e+00    1.257637e+01   -1.359416e-07
   1.042292e-04    6.858978e+06   -3.688413e+00    6.858982e+06    0.000000e+00    1.726118e+05   -1.405522e+02    2.274915e+00    1.257633e+01   -1.359394e-07
   1.048478e-04    6.798365e+06    8.322651e-02    6.798365e+06    0.000000e+00    1.715929e+05   -1.401376e+02   -7.820920e-01    1.257628e+01   -1.359371e-07
   1.054700e-04    6.738284e+06    8.327137e-03    6.738284e+06    0.000000e+00    1.705800e+05   -1.397241e+02   -2.478535e-01    1.257624e+01   -1.359349e-07
   1.060960e-04    6.678730e+06   -3.815017e+00    6.678734e+06    0.000000e+00    1.695731e+05   -1.393118e+02    2.274915e+00    1.257619e+01   -1.359326e-07
   1.067257e-04    6.619707e+06   -3.315476e+00    6.619710e+06    0.000000e+00    1.685721e+05   -1.389008e+02    2.274915e+00    1.257615e+01   -1.359303e-07
   1.073591e-04    6.561208e+06    3.870114e-02    6.561208e+06    0.000000e+00    1.675771e+05   -1.384910e+02   -4.939027e-01    1.257610e+01   -1.359280e-07
   1.079962e-04    6.503222e+06   -3.211282e-01    6.503222e+06    0.000000e+00    1.665879e+05   -1.380824e+02    2.274915e+00    1.257606e+01   -1.359257e-07
   1.086372e-04    6.445745e+06   -4.271519e+00    6.445749e+06    0.000000e+00    1.656045e+05   -1.376750e+02    2.274915e+00    1.257601e+01   -1.359233e-07
   1.092819e-04    6.388781e+06   -2.987569e+00    6.388784e+06    0.000000e+00    1.646270e+05   -1.372688e+02    2.274915e+00    1.257597e+01   -1.359210e-07
   1.099305e-04    6.332322e+06   -2.824265e-02    6.332322e+06    0.000000e+00    1.636552e+05   -1.368638e+02    2.274915e+00    1.257592e+01   -1.359186e-07
   1.105830e-04    6.276358e+06   -6.402415e-01    6.276359e+06    0.000000e+00    1.626891e+05   -1.364600e+02    2.274915e+00    1.257587e+01   -1.359163e-07
   1.112393e-04    6.220885e+06   -4.724584e+00    6.220890e+06    0.000000e+00    1.617288e+05   -1.360573e+02    2.274915e+00    1.257582e+01   -1.359139e-07
   1.118995e-04    6.165909e+06   -2.706684e+00    6.165912e+06    0.000000e+00    1.607741e+05   -1.356559e+02    2.274915e+00    1.257578e+01   -1.359115e-07
   1.125636e-04    6.111419e+06   -1.146696e-01    6.111419e+06    0.000000e+00    1.598250e+05   -1.352557e+02    2.274915e+00    1.257573e+01   -1.359091e-07
   1.132316e-04    6.057407e+06   -9.656723e-01    6.057408e+06    0.000000e+00    1.588816e+05   -1.348566e+02    2.274915e+00    1.257568e+01   -1.359066e-07
   1.139037e-04    6.003868e+06   -5.161796e+00    6.003874e+06    0.000000e+00    1.579437e+05   -1.344587e+02    2.274915e+00    1.257563e+01   -1.359042e-07
   1.145797e-04    5.950810e+06   -2.469709e+00    5.950813e+06    0.000000e+00    1.570113e+05   -1.340620e+02    2.274915e+00    1.257558e+01   -1.359017e-07
   1.152597e-04    5.898220e+06   -2.184455e-01    5.898221e+06    0.000000e+00    1.560845e+05   -1.336665e+02    2.274915e+00    1.257554e+01   -1.358992e-07
   1.159437e-04    5.846092e+06   -1.290223e+00    5.846093e+06    0.000000e+00    1.551631e+05   -1.332722e+02    2.274915e+00    1.257549e+01   -1.358968e-07
   1.166319e-04    5.794421e+06   -5.584977e+00    5.794426e+06    0.000000e+00    1.542471e+05   -1.328789e+02    2.274915e+00    1.257544e+01   -1.358943e-07
   1.173241e-04    5.743214e+06   -2.257891e+00    5.743216e+06    0.000000e+00    1.533366e+05   -1.324869e+02    2.274915e+00    1.257539e+01   -1.358917e-07
   1.180204e-04    5.692458e+06   -3.375284e-01    5.692458e+06    0.000000e+00    1.524314e+05   -1.320960e+02    2.274915e+00    1.257534e+01   -1.358892e-07
   1.187208e-04    5.642147e+06   -1.612433e+00    5.642149e+06    0.000000e+00    1.515316e+05   -1.317063e+02    2.274915e+00    1.257529e+01   -1.358867e-07
   1.194254e-04    5.592278e+06   -5.993003e+00    5.592284e+06    0.000000e+00    1.506371e+05   -1.313177e+02    2.274915e+00    1.257524e+01   -1.358841e-07
   1.201342e-04    5.542858e+06   -2.086804e+00    5.542860e+06    0.000000e+00    1.497478e+05   -1.309303e+02    2.274915e+00    1.257519e+01   -1.358815e-07
   1.208472e-04    5.493872e+06   -4.736160e-01    5.493872e+06    0.000000e+00    1.488638e+05   -1.305440e+02    2.274915e+00    1.257513e+01   -1.358789e-07
   1.215644e-04    5.445316e+06   -1.931535e+00    5.445318e+06    0.000000e+00    1.479850e+05   -1.301588e+02    2.274915e+00    1.257508e+01   -1.358763e-07
   1.222859e-04    5.397186e+06   -6.331844e+00    5.397192e+06    0.000000e+00    1.471114e+05   -1.297748e+02    2.274915e+00    1.257503e+01   -1.358737e-07
   1.230117e-04    5.349490e+06   -1.946548e+00    5.349492e+06    0.000000e+00    1.462430e+05   -1.293919e+02    2.274915e+00    1.257498e+01   -1.358711e-07
   1.237417e-04    5.302212e+06   -6.205866e-01    5.302213e+06    0.000000e+00    1.453797e+05   -1.290102e+02    2.274915e+00    1.257493e+01   -1.358684e-07
   1.244761e-04    5.255350e+06   -2.246392e+00    5.255352e+06    0.000000e+00    1.445214e+05   -1.286296e+02    2.274915e+00    1.257487e+01   -1.358657e-07
   1.252149e-04    5.208899e+06   -5.843857e+00    5.208905e+06    0.000000e+00    1.436683e+05   -1.282500e+02    2.274915e+00    1.257482e+01   -1.358630e-07
   1.259580e-04    5.162866e+06   -1.834432e+00    5.162868e+06    0.000000e+00    1.428202e+05   -1.278717e+02    2.274915e+00    1.257477e+01   -1.358603e-07
   1.267056e-04    5.117238e+06   -7.658197e-01    5.117238e+06    0.000000e+00    1.419770e+05   -1.274944e+02    2.274915e+00    1.257471e+01   -1.358576e-07
   1.274576e-04    5.072009e+06   -2.556060e+00    5.072012e+06    0.000000e+00    1.411389e+05   -1.271183e+02    2.274915e+00    1.257466e+01   -1.358549e-07
   1.282140e-04    5.027179e+06   -5.403382e+00    5.027185e+06    0.000000e+00    1.403057e+05   -1.267432e+02    2.274915e+00    1.257461e+01   -1.358521e-07
   1.289750e-04    4.982752e+06   -1.748079e+00    4.982754e+06    0.000000e+00    1.394774e+05   -1.263693e+02    2.274915e+00    1.257455e+01   -1.358494e-07
   1.297404e-04    4.938714e+06   -9.298596e-01    4.938715e+06    0.000000e+00    1.386540e+05   -1.259965e+02    2.274915e+00    1.257450e+01   -1.358466e-07
   1.305104e-04    4.895063e+06   -2.859998e+00    4.895066e+06    0.000000e+00    1.378354e+05   -1.256248e+02    2.274915e+00    1.257444e+01   -1.358438e-07
   1.312850e-04    4.851797e+06   -5.006497e+00    4.851802e+06    0.000000e+00    1.370217e+05   -1.252541e+02    2.274915e+00    1.257439e+01   -1.358410e-07
   1.320642e-04    4.808919e+06   -1.684822e+00    4.808921e+06    0.000000e+00    1.362128e+05   -1.248846e+02    2.274915e+00    1.257433e+01   -1.358381e-07
   1.328480e-04    4.766418e+06   -1.097751e+00    4.766419e+06    0.000000e+00    1.354087e+05   -1.245162e+02    2.274915e+00    1.257427e+01   -1.358353e-07
   1.336364e-04    4.724289e+06   -3.162746e+00    4.724292e+06    0.000000e+00    1.346093e+05   -1.241488e+02    2.274915e+00    1.257422e+01   -1.358324e-07
   1.344295e-04    4.682533e+06   -4.650303e+00    4.682537e+06    0.000000e+00    1.338146e+05   -1.237825e+02    2.274915e+00    1.257416e+01   -1.358295e-07
   1.352274e-04    4.641150e+06   -1.642649e+00    4.641152e+06    0.000000e+00    1.330246e+05   -1.234174e+02    2.274915e+00    1.257410e+01   -1.358266e-07
   1.360299e-04    4.600130e+06   -1.266213e+00    4.600132e+06    0.000000e+00    1.322393e+05   -1.230532e+02    2.274915e+00    1.257404e+01   -1.358237e-07
   1.368372e-04    4.559471e+06   -3.447277e+00    4.559474e+06    0.000000e+00    1.314586e+05   -1.226902e+02    2.274915e+00    1.257399e+01   -1.358208e-07
   1.376494e-04    4.519171e+06   -4.331705e+00    4.519176e+06    0.000000e+00    1.306825e+05   -1.223282e+02    2.274915e+00    1.257393e+01   -1.358178e-07
   1.384663e-04    4.479232e+06   -1.623588e+00    4.479234e+06    0.000000e+00    1.299109e+05   -1.219673e+02    2.274915e+00    1.257387e+01   -1.358148e-07
   1.392881e-04    4.439643e+06   -1.444715e+00    4.439644e+06    0.000000e+00    1.291440e+05   -1.216075e+02    2.274915e+00    1.257381e+01   -1.358119e-07
   1.401148e-04    4.400401e+06   -3.730503e+00    4.400405e+06    0.000000e+00    1.283815e+05   -1.212487e+02    2.274915e+00    1.257375e+01   -1.358088e-07
   1.409463e-04    4.361508e+06   -4.048752e+00    4.361512e+06    0.000000e+00    1.276236e+05   -1.208910e+02    2.274915e+00    1.257369e+01   -1.358058e-07
   1.417828e-04    4.322961e+06   -1.612833e+00    4.322963e+06    0.000000e+00    1.268701e+05   -1.205344e+02    2.274915e+00    1.257363e+01   -1.358028e-07
   1.426243e-04    4.284753e+06   -1.620964e+00    4.284754e+06    0.000000e+00    1.261211e+05   -1.201788e+02    2.274915e+00    1.257357e+01   -1.357997e-07
   1.434708e-04    4.246880e+06   -4.003908e+00    4.246884e+06    0.000000e+00    1.253765e+05   -1.198242e+02    2.274915e+00    1.257351e+01   -1.357966e-07
   1.443223e-04    4.209344e+06   -3.801273e+00    4.209347e+06    0.000000e+00    1.246363e+05   -1.194707e+02    2.274915e+00    1.257345e+01   -1.357935e-07
   1.451788e-04    4.172141e+06   -1.625336e+00    4.172143e+06    0.000000e+00    1.239005e+05   -1.191182e+02    2.274915e+00    1.257339e+01   -1.357904e-07
   1.460404e-04    4.135265e+06   -1.801332e+00    4.135267e+06    0.000000e+00    1.231690e+05   -1.187668e+02    2.274915e+00    1.257333e+01   -1.357873e-07
   1.469072e-04    4.098713e+06   -4.269349e+00    4.098717e+06    0.000000e+00    1.224418e+05   -1.184164e+02    2.274915e+00    1.257326e+01   -1.357842e-07
   1.477791e-04    4.062486e+06   -3.573666e+00    4.062490e+06    0.000000e+00    1.217189e+05   -1.180671e+02    2.274915e+00    1.257320e+01   -1.357810e-07
   1.486561e-04    4.026581e+06   -1.643887e+00    4.026583e+06    0.000000e+00    1.210003e+05   -1.177188e+02    2.274915e+00    1.257314e+01   -1.357778e-07
   1.495384e-04    3.990991e+06   -1.986234e+00    3.990993e+06    0.000000e+00    1.202859e+05   -1.173715e+02    2.274915e+00    1.257307e+01   -1.357746e-07
   1.504259e-04    3.955714e+06   -4.531591e+00    3.955718e+06    0.000000e+00    1.195757e+05   -1.170252e+02    2.274915e+00    1.257301e+01   -1.357714e-07
   1.513187e-04    3.920751e+06   -3.384070e+00    3.920755e+06    0.000000e+00    1.188697e+05   -1.166799e+02    2.274915e+00    1.257295e+01   -1.357681e-07
   1.522167e-04    3.886099e+06   -1.677954e+00    3.886100e+06    0.000000e+00    1.181679e+05   -1.163357e+02    2.274915e+00    1.257288e+01   -1.357648e-07
   1.531201e-04    3.851750e+06   -2.163313e+00    3.851752e+06    0.000000e+00    1.174702e+05   -1.159925e+02    2.274915e+00    1.257282e+01   -1.357616e-07
   1.540289e-04    3.817702e+06   -4.773162e+00    3.817707e+06    0.000000e+00    1.167767e+05   -1.156503e+02    2.274915e+00    1.257275e+01   -1.357583e-07
   1.549430e-04    3.783960e+06   -3.208146e+00    3.783963e+06    0.000000e+00    1.160872e+05   -1.153091e+02    2.274915e+00    1.257269e+01   -1.357549e-07
   1.558626e-04    3.750516e+06   -1.722509e+00    3.750517e+06    0.000000e+00    1.154018e+05   -1.149690e+02    2.274915e+00    1.257262e+01   -1.357516e-07
   1.567877e-04    3.717365e+06   -2.344794e+00    3.717367e+06    0.000000e+00    1.147204e+05   -1.146298e+02    2.274915e+00    1.257255e+01   -1.357482e-07
   1.577182e-04    3.684505e+06   -5.016365e+00    3.684510e+06    0.000000e+00    1.140431e+05   -1.142916e+02    2.274915e+00    1.257249e+01   -1.357448e-07
   1.586542e-04    3.651939e+06   -3.061523e+00    3.651943e+06    0.000000e+00    1.133697e+05   -1.139544e+02    2.274915e+00    1.257242e+01   -1.357414e-07
   1.595958e-04    3.619661e+06   -1.776167e+00    3.619663e+06    0.000000e+00    1.127004e+05   -1.136183e+02    2.274915e+00    1.257235e+01   -1.357380e-07
   1.605430e-04    3.587667e+06   -2.521430e+00    3.587669e+06    0.000000e+00    1.120350e+05   -1.132831e+02    2.274915e+00    1.257228e+01   -1.357346e-07
   1.614958e-04    3.555953e+06   -5.244193e+00    3.555958e+06    0.000000e+00    1.113735e+05   -1.129488e+02    2.274915e+00    1.257222e+01   -1.357311e-07
   1.624543e-04    3.524524e+06   -2.933723e+00    3.524527e+06    0.000000e+00    1.107159e+05   -1.126156e+02    2.274915e+00    1.257215e+01   -1.357276e-07
   1.634185e-04    3.493371e+06   -1.842596e+00    3.493373e+06    0.000000e+00    1.100622e+05   -1.122834e+02    2.274915e+00    1.257208e+01   -1.357241e-07
   1.643883e-04    3.462492e+06   -2.698595e+00    3.462495e+06    0.000000e+00    1.094123e+05   -1.119522e+02    2.274915e+00    1.257201e+01   -1.357206e-07
   1.653640e-04    3.431884e+06   -5.457550e+00    3.431890e+06    0.000000e+00    1.087663e+05   -1.116219e+02    2.274915e+00    1.257194e+01   -1.357171e-07
   1.663454e-04    3.401552e+06   -2.826015e+00    3.401555e+06    0.000000e+00    1.081241e+05   -1.112926e+02    2.274915e+00    1.257187e+01   -1.357135e-07
   1.673327e-04    3.371486e+06   -1.905810e+00    3.371488e+06    0.000000e+00    1.074856e+05   -1.109643e+02    2.274915e+00    1.257180e+01   -1.357099e-07
   1.683258e-04    3.341684e+06   -2.870173e+00    3.341687e+06    0.000000e+00    1.068510e+05   -1.106369e+02    2.274915e+00    1.257173e+01   -1.357063e-07
   1.693248e-04    3.312144e+06   -5.364346e+00    3.312149e+06    0.000000e+00    1.062201e+05   -1.103105e+02    2.274915e+00    1.257165e+01   -1.357027e-07
   1.703297e-04    3.282870e+06   -2.740284e+00    3.282872e+06    0.000000e+00    1.055929e+05   -1.099851e+02    2.274915e+00    1.257158e+01   -1.356990e-07
   1.713406e-04    3.253852e+06   -1.982027e+00    3.253854e+06    0.000000e+00    1.049694e+05   -1.096606e+02    2.274915e+00    1.257151e+01   -1.356953e-07
   1.723575e-04    3.225089e+06   -3.039715e+00    3.225092e+06    0.000000e+00    1.043496e+05   -1.093371e+02    2.274915e+00    1.257144e+01   -1.356916e-07
   1.733804e-04    3.196580e+06   -5.063750e+00    3.196585e+06    0.000000e+00    1.037335e+05   -1.090145e+02    2.274915e+00    1.257136e+01   -1.356879e-07
   1.744094e-04    3.168327e+06   -2.665522e+00    3.168329e+06    0.000000e+00    1.031209e+05   -1.086930e+02    2.274915e+00    1.257129e+01   -1.356842e-07
   1.754445e-04    3.140321e+06   -2.058270e+00    3.140323e+06    0.000000e+00    1.025120e+05   -1.083723e+02    2.274915e+00    1.257121e+01   -1.356804e-07
   1.764858e-04    3.112561e+06   -3.205284e+00    3.112565e+06    0.000000e+00    1.019067e+05   -1.080526e+02    2.274915e+00    1.257114e+01   -1.356766e-07
   1.775332e-04    3.085047e+06   -4.795235e+00    3.085051e+06    0.000000e+00    1.013050e+05   -1.077338e+02    2.274915e+00    1.257106e+01   -1.356728e-07
   1.785869e-04    3.057779e+06   -2.603632e+00    3.057781e+06    0.000000e+00    1.007068e+05   -1.074160e+02    2.274915e+00    1.257099e+01   -1.356690e-07
   1.796468e-04    3.030750e+06   -2.140731e+00    3.030752e+06    0.000000e+00    1.001121e+05   -1.070991e+02    2.274915e+00    1.257091e+01   -1.356651e-07
   1.807130e-04    3.003958e+06   -3.366632e+00    3.003962e+06    0.000000e+00    9.952100e+04   -1.067832e+02    2.274915e+00    1.257084e+01   -1.356613e-07
   1.817855e-04    2.977404e+06   -4.551937e+00    2.977408e+06    0.000000e+00    9.893334e+04   -1.064681e+02    2.274915e+00    1.257076e+01   -1.356574e-07
   1.828644e-04    2.951087e+06   -2.556026e+00    2.951089e+06    0.000000e+00    9.834914e+04   -1.061541e+02    2.274915e+00    1.257068e+01   -1.356535e-07
   1.839497e-04    2.925000e+06   -2.225830e+00    2.925003e+06    0.000000e+00    9.776839e+04   -1.058409e+02    2.274915e+00    1.257060e+01   -1.356495e-07
   1.850414e-04    2.899143e+06   -3.523202e+00    2.899147e+06    0.000000e+00    9.719107e+04   -1.055287e+02    2.274915e+00    1.257053e+01   -1.356455e-07
   1.861396e-04    2.873515e+06   -4.331901e+00    2.873519e+06    0.000000e+00    9.661716e+04   -1.052173e+02    2.274915e+00    1.257045e+01   -1.356415e-07
   1.872443e-04    2.848116e+06   -2.517301e+00    2.848118e+06    0.000000e+00    9.604663e+04   -1.049070e+02    2.274915e+00    1.257037e+01   -1.356375e-07
   1.883556e-04    2.822939e+06   -2.315723e+00    2.822942e+06    0.000000e+00    9.547946e+04   -1.045975e+02    2.274915e+00    1.257029e+01   -1.356335e-07
   1.894735e-04    2.797984e+06   -3.674875e+00    2.797988e+06    0.000000e+00    9.491565e+04   -1.042889e+02    2.274915e+00    1.257021e+01   -1.356294e-07
   1.905980e-04    2.773250e+06   -4.133393e+00    2.773254e+06    0.000000e+00    9.435516e+04   -1.039812e+02    2.274915e+00    1.257013e+01   -1.356253e-07
   1.917292e-04    2.748737e+06   -2.491865e+00    2.748739e+06    0.000000e+00    9.379797e+04   -1.036745e+02    2.274915e+00    1.257005e+01   -1.356212e-07
   1.928671e-04    2.724438e+06   -2.402292e+00    2.724441e+06    0.000000e+00    9.324408e+04   -1.033687e+02    2.274915e+00    1.256996e+01   -1.356171e-07
   1.940117e-04    2.700353e+06   -3.821838e+00    2.700357e+06    0.000000e+00    9.269345e+04   -1.030637e+02    2.274915e+00    1.256988e+01   -1.356129e-07
   1.951632e-04    2.676482e+06   -3.955258e+00    2.676486e+06    0.000000e+00    9.214607e+04   -1.027597e+02    2.274915e+00    1.256980e+01   -1.356088e-07
   1.963215e-04    2.652824e+06   -2.475614e+00    2.652826e+06    0.000000e+00    9.160192e+04   -1.024565e+02    2.274915e+00    1.256972e+01   -1.356046e-07
   1.974866e-04    2.629373e+06   -2.495897e+00    2.629375e+06    0.000000e+00    9.106098e+04   -1.021543e+02    2.274915e+00    1.256963e+01   -1.356003e-07
   1.986587e-04    2.606128e+06   -3.962212e+00    2.606132e+06    0.000000e+00    9.052323e+04   -1.018529e+02    2.274915e+00    1.256955e+01   -1.355961e-07
   1.998377e-04    2.583089e+06   -3.794409e+00    2.583093e+06    0.000000e+00    8.998866e+04   -1.015524e+02    2.274915e+00    1.256946e+01   -1.355918e-07
   2.010238e-04    2.560256e+06   -2.467792e+00    2.560259e+06    0.000000e+00    8.945724e+04   -1.012529e+02    2.274915e+00    1.256938e+01   -1.355875e-07
   2.022168e-04    2.537623e+06   -2.583609e+00    2.537626e+06    0.000000e+00    8.892895e+04   -1.009542e+02    2.274915e+00    1.256929e+01   -1.355831e-07
   2.034170e-04    2.515189e+06   -4.100699e+00    2.515193e+06    0.000000e+00    8.840378e+04   -1.006563e+02    2.274915e+00    1.256921e+01   -1.355788e-07
   2.046242e-04    2.492954e+06   -3.650883e+00    2.492958e+06    0.000000e+00    8.788171e+04   -1.003594e+02    2.274915e+00    1.256912e+01   -1.355744e-07
