# All units in Hartree [AU] if not specified
# Convergence: Err(φ)=4.155e-11, Err(n_e)=9.442e-11, Err(IET)=9.398e-13, Q_net=3.962e-07
# {"name":"Ar", "Z":18, "Zstar":0.6918823351201553, "A":39.948,  "μ[AU]": -1.7387120465e-01, "Te[AU]": 5.172e-02, "Ti[AU]": 5.172e-02, "rs[AU]": 1.372e+01 }
   r[AU]           n[AU]           nf[AU]          nb[AU]          n_ion[AU]       φtot[AU]        δVxc/δρ[Au]     U_ei[AU]        U_ii[AU]        g_ii            
   1.000000e-04    7.298696e+06   -8.009809e+00    7.298704e+06    0.000000e+00    1.799154e+05   -1.434897e+02    2.926193e+00    1.956544e+01   -1.113850e-08
   1.005935e-04    7.234197e+06   -4.777401e+00    7.234202e+06    0.000000e+00    1.788534e+05   -1.430663e+02    2.926193e+00    1.956537e+01   -1.113832e-08
   1.011905e-04    7.170268e+06   -2.015908e+00    7.170270e+06    0.000000e+00    1.777977e+05   -1.426442e+02    2.926193e+00    1.956531e+01   -1.113815e-08
   1.017911e-04    7.106900e+06   -2.848922e+00    7.106903e+06    0.000000e+00    1.767482e+05   -1.422234e+02    2.926193e+00    1.956524e+01   -1.113797e-08
   1.023952e-04    7.044089e+06   -7.173758e+00    7.044096e+06    0.000000e+00    1.757049e+05   -1.418037e+02    2.926193e+00    1.956517e+01   -1.113779e-08
   1.030029e-04    6.981838e+06   -5.437438e+00    6.981844e+06    0.000000e+00    1.746678e+05   -1.413853e+02    2.926193e+00    1.956510e+01   -1.113761e-08
   1.036142e-04    6.920139e+06   -2.326166e+00    6.920141e+06    0.000000e+00    1.736368e+05   -1.409682e+02    2.926193e+00    1.956503e+01   -1.113742e-08
   1.042292e-04    6.858982e+06   -2.690261e+00    6.858984e+06    0.000000e+00    1.726118e+05   -1.405523e+02    2.926193e+00    1.956497e+01   -1.113724e-08
   1.048478e-04    6.798361e+06   -6.443004e+00    6.798368e+06    0.000000e+00    1.715929e+05   -1.401376e+02    2.926193e+00    1.956490e+01   -1.113706e-08
   1.054700e-04    6.738281e+06   -6.102849e+00    6.738287e+06    0.000000e+00    1.705800e+05   -1.397241e+02    2.926193e+00    1.956483e+01   -1.113687e-08
   1.060960e-04    6.678734e+06   -2.675102e+00    6.678737e+06    0.000000e+00    1.695731e+05   -1.393119e+02    2.926193e+00    1.956476e+01   -1.113668e-08
   1.067257e-04    6.619710e+06   -2.607133e+00    6.619713e+06    0.000000e+00    1.685722e+05   -1.389008e+02    2.926193e+00    1.956469e+01   -1.113650e-08
   1.073591e-04    6.561204e+06   -5.813355e+00    6.561210e+06    0.000000e+00    1.675771e+05   -1.384910e+02    2.926193e+00    1.956462e+01   -1.113631e-08
   1.079962e-04    6.503218e+06   -6.776272e+00    6.503225e+06    0.000000e+00    1.665879e+05   -1.380824e+02    2.926193e+00    1.956455e+01   -1.113612e-08
   1.086372e-04    6.445748e+06   -3.046344e+00    6.445751e+06    0.000000e+00    1.656046e+05   -1.376750e+02    2.926193e+00    1.956447e+01   -1.113593e-08
   1.092819e-04    6.388784e+06   -2.575619e+00    6.388786e+06    0.000000e+00    1.646270e+05   -1.372688e+02    2.926193e+00    1.956440e+01   -1.113573e-08
   1.099305e-04    6.332319e+06   -5.272564e+00    6.332324e+06    0.000000e+00    1.636552e+05   -1.368638e+02    2.926193e+00    1.956433e+01   -1.113554e-08
   1.105830e-04    6.276354e+06   -7.450541e+00    6.276361e+06    0.000000e+00    1.626892e+05   -1.364600e+02    2.926193e+00    1.956426e+01   -1.113535e-08
   1.112393e-04    6.220889e+06   -3.449814e+00    6.220892e+06    0.000000e+00    1.617288e+05   -1.360574e+02    2.926193e+00    1.956418e+01   -1.113515e-08
   1.118995e-04    6.165911e+06   -2.601173e+00    6.165914e+06    0.000000e+00    1.607741e+05   -1.356559e+02    2.926193e+00    1.956411e+01   -1.113495e-08
   1.125636e-04    6.111416e+06   -4.816766e+00    6.111421e+06    0.000000e+00    1.598251e+05   -1.352557e+02    2.926193e+00    1.956403e+01   -1.113476e-08
   1.132316e-04    6.057402e+06   -8.125614e+00    6.057410e+06    0.000000e+00    1.588816e+05   -1.348566e+02    2.926193e+00    1.956396e+01   -1.113456e-08
   1.139037e-04    6.003872e+06   -3.878028e+00    6.003876e+06    0.000000e+00    1.579437e+05   -1.344588e+02    2.926193e+00    1.956389e+01   -1.113436e-08
   1.145797e-04    5.950812e+06   -2.674834e+00    5.950815e+06    0.000000e+00    1.570114e+05   -1.340621e+02    2.926193e+00    1.956381e+01   -1.113416e-08
   1.152597e-04    5.898218e+06   -4.445061e+00    5.898223e+06    0.000000e+00    1.560845e+05   -1.336665e+02    2.926193e+00    1.956373e+01   -1.113395e-08
   1.159437e-04    5.846087e+06   -8.798050e+00    5.846096e+06    0.000000e+00    1.551631e+05   -1.332721e+02    2.926193e+00    1.956366e+01   -1.113375e-08
   1.166319e-04    5.794424e+06   -4.328365e+00    5.794429e+06    0.000000e+00    1.542472e+05   -1.328789e+02    2.926193e+00    1.956358e+01   -1.113354e-08
   1.173241e-04    5.743216e+06   -2.791838e+00    5.743218e+06    0.000000e+00    1.533366e+05   -1.324869e+02    2.926193e+00    1.956350e+01   -1.113334e-08
   1.180204e-04    5.692456e+06   -4.131377e+00    5.692461e+06    0.000000e+00    1.524315e+05   -1.320960e+02    2.926193e+00    1.956343e+01   -1.113313e-08
   1.187208e-04    5.642143e+06   -8.258603e+00    5.642151e+06    0.000000e+00    1.515316e+05   -1.317063e+02    2.926193e+00    1.956335e+01   -1.113292e-08
   1.194254e-04    5.592282e+06   -4.781804e+00    5.592286e+06    0.000000e+00    1.506371e+05   -1.313177e+02    2.926193e+00    1.956327e+01   -1.113271e-08
   1.201342e-04    5.542859e+06   -2.947589e+00    5.542862e+06    0.000000e+00    1.497479e+05   -1.309303e+02    2.926193e+00    1.956319e+01   -1.113250e-08
   1.208472e-04    5.493871e+06   -3.889381e+00    5.493875e+06    0.000000e+00    1.488639e+05   -1.305440e+02    2.926193e+00    1.956311e+01   -1.113229e-08
   1.215644e-04    5.445313e+06   -7.527788e+00    5.445320e+06    0.000000e+00    1.479851e+05   -1.301588e+02    2.926193e+00    1.956303e+01   -1.113207e-08
   1.222859e-04    5.397189e+06   -5.252659e+00    5.397195e+06    0.000000e+00    1.471115e+05   -1.297748e+02    2.926193e+00    1.956295e+01   -1.113186e-08
   1.230117e-04    5.349491e+06   -3.141068e+00    5.349494e+06    0.000000e+00    1.462430e+05   -1.293920e+02    2.926193e+00    1.956287e+01   -1.113164e-08
   1.237417e-04    5.302212e+06   -3.709352e+00    5.302215e+06    0.000000e+00    1.453797e+05   -1.290102e+02    2.926193e+00    1.956279e+01   -1.113142e-08
   1.244761e-04    5.255347e+06   -6.884731e+00    5.255354e+06    0.000000e+00    1.445215e+05   -1.286296e+02    2.926193e+00    1.956270e+01   -1.113121e-08
   1.252149e-04    5.208901e+06   -5.734873e+00    5.208907e+06    0.000000e+00    1.436683e+05   -1.282501e+02    2.926193e+00    1.956262e+01   -1.113099e-08
   1.259580e-04    5.162867e+06   -3.358626e+00    5.162871e+06    0.000000e+00    1.428202e+05   -1.278717e+02    2.926193e+00    1.956254e+01   -1.113076e-08
   1.267056e-04    5.117237e+06   -3.581461e+00    5.117241e+06    0.000000e+00    1.419771e+05   -1.274944e+02    2.926193e+00    1.956246e+01   -1.113054e-08
   1.274576e-04    5.072008e+06   -6.329045e+00    5.072014e+06    0.000000e+00    1.411389e+05   -1.271183e+02    2.926193e+00    1.956237e+01   -1.113032e-08
   1.282140e-04    5.027181e+06   -6.230589e+00    5.027187e+06    0.000000e+00    1.403057e+05   -1.267432e+02    2.926193e+00    1.956229e+01   -1.113009e-08
   1.289750e-04    4.982752e+06   -3.610893e+00    4.982756e+06    0.000000e+00    1.394774e+05   -1.263693e+02    2.926193e+00    1.956220e+01   -1.112987e-08
   1.297404e-04    4.938714e+06   -3.500232e+00    4.938717e+06    0.000000e+00    1.386540e+05   -1.259965e+02    2.926193e+00    1.956212e+01   -1.112964e-08
   1.305104e-04    4.895062e+06   -5.835705e+00    4.895068e+06    0.000000e+00    1.378355e+05   -1.256248e+02    2.926193e+00    1.956203e+01   -1.112941e-08
   1.312850e-04    4.851798e+06   -6.718453e+00    4.851805e+06    0.000000e+00    1.370218e+05   -1.252541e+02    2.926193e+00    1.956194e+01   -1.112918e-08
   1.320642e-04    4.808919e+06   -3.877628e+00    4.808923e+06    0.000000e+00    1.362128e+05   -1.248846e+02    2.926193e+00    1.956186e+01   -1.112895e-08
   1.328480e-04    4.766417e+06   -3.470578e+00    4.766421e+06    0.000000e+00    1.354087e+05   -1.245162e+02    2.926193e+00    1.956177e+01   -1.112871e-08
   1.336364e-04    4.724289e+06   -5.417813e+00    4.724294e+06    0.000000e+00    1.346093e+05   -1.241488e+02    2.926193e+00    1.956168e+01   -1.112848e-08
   1.344295e-04    4.682532e+06   -7.215114e+00    4.682539e+06    0.000000e+00    1.338146e+05   -1.237825e+02    2.926193e+00    1.956159e+01   -1.112824e-08
   1.352274e-04    4.641150e+06   -4.169257e+00    4.641154e+06    0.000000e+00    1.330246e+05   -1.234173e+02    2.926193e+00    1.956150e+01   -1.112800e-08
   1.360299e-04    4.600130e+06   -3.473979e+00    4.600134e+06    0.000000e+00    1.322393e+05   -1.230532e+02    2.926193e+00    1.956141e+01   -1.112776e-08
   1.368372e-04    4.559471e+06   -5.063651e+00    4.559476e+06    0.000000e+00    1.314586e+05   -1.226902e+02    2.926193e+00    1.956132e+01   -1.112752e-08
   1.376494e-04    4.519170e+06   -7.712572e+00    4.519178e+06    0.000000e+00    1.306825e+05   -1.223282e+02    2.926193e+00    1.956123e+01   -1.112728e-08
   1.384663e-04    4.479231e+06   -4.478351e+00    4.479236e+06    0.000000e+00    1.299110e+05   -1.219673e+02    2.926193e+00    1.956114e+01   -1.112704e-08
   1.392881e-04    4.439643e+06   -3.518117e+00    4.439646e+06    0.000000e+00    1.291440e+05   -1.216075e+02    2.926193e+00    1.956105e+01   -1.112679e-08
   1.401148e-04    4.400402e+06   -4.768237e+00    4.400407e+06    0.000000e+00    1.283816e+05   -1.212487e+02    2.926193e+00    1.956096e+01   -1.112655e-08
   1.409463e-04    4.361506e+06   -8.167023e+00    4.361514e+06    0.000000e+00    1.276237e+05   -1.208910e+02    2.926193e+00    1.956086e+01   -1.112630e-08
   1.417828e-04    4.322960e+06   -4.806877e+00    4.322965e+06    0.000000e+00    1.268702e+05   -1.205344e+02    2.926193e+00    1.956077e+01   -1.112605e-08
   1.426243e-04    4.284753e+06   -3.598527e+00    4.284757e+06    0.000000e+00    1.261212e+05   -1.201788e+02    2.926193e+00    1.956068e+01   -1.112580e-08
   1.434708e-04    4.246881e+06   -4.528584e+00    4.246886e+06    0.000000e+00    1.253766e+05   -1.198242e+02    2.926193e+00    1.956058e+01   -1.112555e-08
   1.443223e-04    4.209342e+06   -7.536923e+00    4.209349e+06    0.000000e+00    1.246364e+05   -1.194707e+02    2.926193e+00    1.956049e+01   -1.112529e-08
   1.451788e-04    4.172140e+06   -5.138466e+00    4.172145e+06    0.000000e+00    1.239005e+05   -1.191182e+02    2.926193e+00    1.956039e+01   -1.112504e-08
   1.460404e-04    4.135265e+06   -3.702258e+00    4.135269e+06    0.000000e+00    1.231690e+05   -1.187668e+02    2.926193e+00    1.956030e+01   -1.112478e-08
   1.469072e-04    4.098715e+06   -4.338931e+00    4.098719e+06    0.000000e+00    1.224418e+05   -1.184164e+02    2.926193e+00    1.956020e+01   -1.112452e-08
   1.477791e-04    4.062485e+06   -6.983894e+00    4.062492e+06    0.000000e+00    1.217189e+05   -1.180671e+02    2.926193e+00    1.956010e+01   -1.112426e-08
   1.486561e-04    4.026580e+06   -5.489202e+00    4.026585e+06    0.000000e+00    1.210003e+05   -1.177187e+02    2.926193e+00    1.956000e+01   -1.112400e-08
   1.495384e-04    3.990992e+06   -3.835711e+00    3.990996e+06    0.000000e+00    1.202859e+05   -1.173715e+02    2.926193e+00    1.955991e+01   -1.112374e-08
   1.504259e-04    3.955716e+06   -4.191979e+00    3.955720e+06    0.000000e+00    1.195757e+05   -1.170252e+02    2.926193e+00    1.955981e+01   -1.112348e-08
   1.513187e-04    3.920750e+06   -6.486308e+00    3.920757e+06    0.000000e+00    1.188698e+05   -1.166799e+02    2.926193e+00    1.955971e+01   -1.112321e-08
   1.522167e-04    3.886096e+06   -5.838427e+00    3.886102e+06    0.000000e+00    1.181679e+05   -1.163357e+02    2.926193e+00    1.955961e+01   -1.112294e-08
   1.531201e-04    3.851750e+06   -3.992796e+00    3.851754e+06    0.000000e+00    1.174703e+05   -1.159925e+02    2.926193e+00    1.955951e+01   -1.112267e-08
   1.540289e-04    3.817705e+06   -4.082996e+00    3.817709e+06    0.000000e+00    1.167767e+05   -1.156503e+02    2.926193e+00    1.955940e+01   -1.112240e-08
   1.549430e-04    3.783959e+06   -6.060902e+00    3.783965e+06    0.000000e+00    1.160872e+05   -1.153091e+02    2.926193e+00    1.955930e+01   -1.112213e-08
   1.558626e-04    3.750513e+06   -6.199025e+00    3.750519e+06    0.000000e+00    1.154018e+05   -1.149689e+02    2.926193e+00    1.955920e+01   -1.112186e-08
   1.567877e-04    3.717365e+06   -4.170536e+00    3.717369e+06    0.000000e+00    1.147205e+05   -1.146298e+02    2.926193e+00    1.955910e+01   -1.112158e-08
   1.577182e-04    3.684508e+06   -4.015634e+00    3.684512e+06    0.000000e+00    1.140431e+05   -1.142916e+02    2.926193e+00    1.955899e+01   -1.112130e-08
   1.586542e-04    3.651939e+06   -5.681474e+00    3.651945e+06    0.000000e+00    1.133698e+05   -1.139544e+02    2.926193e+00    1.955889e+01   -1.112102e-08
   1.595958e-04    3.619659e+06   -6.562493e+00    3.619665e+06    0.000000e+00    1.127004e+05   -1.136182e+02    2.926193e+00    1.955878e+01   -1.112074e-08
   1.605430e-04    3.587667e+06   -4.368175e+00    3.587671e+06    0.000000e+00    1.120350e+05   -1.132831e+02    2.926193e+00    1.955868e+01   -1.112046e-08
   1.614958e-04    3.555956e+06   -3.982469e+00    3.555960e+06    0.000000e+00    1.113735e+05   -1.129489e+02    2.926193e+00    1.955857e+01   -1.112018e-08
   1.624543e-04    3.524523e+06   -5.359872e+00    3.524529e+06    0.000000e+00    1.107159e+05   -1.126156e+02    2.926193e+00    1.955846e+01   -1.111989e-08
   1.634185e-04    3.493368e+06   -6.928964e+00    3.493375e+06    0.000000e+00    1.100622e+05   -1.122834e+02    2.926193e+00    1.955836e+01   -1.111961e-08
   1.643883e-04    3.462493e+06   -4.583266e+00    3.462497e+06    0.000000e+00    1.094123e+05   -1.119522e+02    2.926193e+00    1.955825e+01   -1.111932e-08
   1.653640e-04    3.431888e+06   -3.982830e+00    3.431892e+06    0.000000e+00    1.087663e+05   -1.116219e+02    2.926193e+00    1.955814e+01   -1.111903e-08
   1.663454e-04    3.401552e+06   -5.086738e+00    3.401557e+06    0.000000e+00    1.081241e+05   -1.112926e+02    2.926193e+00    1.955803e+01   -1.111873e-08
   1.673327e-04    3.371483e+06   -7.301334e+00    3.371490e+06    0.000000e+00    1.074857e+05   -1.109642e+02    2.926193e+00    1.955792e+01   -1.111844e-08
   1.683258e-04    3.341684e+06   -4.808651e+00    3.341689e+06    0.000000e+00    1.068510e+05   -1.106369e+02    2.926193e+00    1.955781e+01   -1.111814e-08
   1.693248e-04    3.312147e+06   -4.009073e+00    3.312151e+06    0.000000e+00    1.062201e+05   -1.103105e+02    2.926193e+00    1.955770e+01   -1.111785e-08
   1.703297e-04    3.282869e+06   -4.858060e+00    3.282874e+06    0.000000e+00    1.055929e+05   -1.099851e+02    2.926193e+00    1.955758e+01   -1.111755e-08
   1.713406e-04    3.253849e+06   -7.311767e+00    3.253856e+06    0.000000e+00    1.049695e+05   -1.096606e+02    2.926193e+00    1.955747e+01   -1.111725e-08
   1.723575e-04    3.225089e+06   -5.040838e+00    3.225094e+06    0.000000e+00    1.043497e+05   -1.093371e+02    2.926193e+00    1.955736e+01   -1.111694e-08
   1.733804e-04    3.196583e+06   -4.060403e+00    3.196587e+06    0.000000e+00    1.037335e+05   -1.090146e+02    2.926193e+00    1.955724e+01   -1.111664e-08
   1.744094e-04    3.168326e+06   -4.670453e+00    3.168331e+06    0.000000e+00    1.031210e+05   -1.086930e+02    2.926193e+00    1.955713e+01   -1.111633e-08
   1.754445e-04    3.140318e+06   -6.832741e+00    3.140325e+06    0.000000e+00    1.025121e+05   -1.083723e+02    2.926193e+00    1.955701e+01   -1.111602e-08
   1.764858e-04    3.112561e+06   -5.287577e+00    3.112567e+06    0.000000e+00    1.019068e+05   -1.080526e+02    2.926193e+00    1.955690e+01   -1.111571e-08
   1.775332e-04    3.085049e+06   -4.132529e+00    3.085053e+06    0.000000e+00    1.013050e+05   -1.077338e+02    2.926193e+00    1.955678e+01   -1.111540e-08
   1.785869e-04    3.057779e+06   -4.521857e+00    3.057783e+06    0.000000e+00    1.007069e+05   -1.074160e+02    2.926193e+00    1.955666e+01   -1.111509e-08
   1.796468e-04    3.030748e+06   -6.407857e+00    3.030754e+06    0.000000e+00    1.001122e+05   -1.070991e+02    2.926193e+00    1.955654e+01   -1.111477e-08
   1.807130e-04    3.003958e+06   -5.542189e+00    3.003964e+06    0.000000e+00    9.952104e+04   -1.067832e+02    2.926193e+00    1.955642e+01   -1.111446e-08
   1.817855e-04    2.977406e+06   -4.227284e+00    2.977410e+06    0.000000e+00    9.893338e+04   -1.064682e+02    2.926193e+00    1.955630e+01   -1.111414e-08
   1.828644e-04    2.951087e+06   -4.406344e+00    2.951091e+06    0.000000e+00    9.834919e+04   -1.061541e+02    2.926193e+00    1.955618e+01   -1.111382e-08
   1.839497e-04    2.924999e+06   -6.033667e+00    2.925005e+06    0.000000e+00    9.776844e+04   -1.058409e+02    2.926193e+00    1.955606e+01   -1.111349e-08
   1.850414e-04    2.899143e+06   -5.803843e+00    2.899149e+06    0.000000e+00    9.719112e+04   -1.055286e+02    2.926193e+00    1.955594e+01   -1.111317e-08
   1.861396e-04    2.873517e+06   -4.340058e+00    2.873521e+06    0.000000e+00    9.661720e+04   -1.052174e+02    2.926193e+00    1.955582e+01   -1.111284e-08
   1.872443e-04    2.848116e+06   -4.322287e+00    2.848120e+06    0.000000e+00    9.604667e+04   -1.049070e+02    2.926193e+00    1.955569e+01   -1.111251e-08
   1.883556e-04    2.822938e+06   -5.705111e+00    2.822944e+06    0.000000e+00    9.547951e+04   -1.045975e+02    2.926193e+00    1.955557e+01   -1.111218e-08
   1.894735e-04    2.797983e+06   -6.069160e+00    2.797990e+06    0.000000e+00    9.491569e+04   -1.042889e+02    2.926193e+00    1.955545e+01   -1.111185e-08
   1.905980e-04    2.773251e+06   -4.468861e+00    2.773256e+06    0.000000e+00    9.435520e+04   -1.039812e+02    2.926193e+00    1.955532e+01   -1.111151e-08
   1.917292e-04    2.748737e+06   -4.265482e+00    2.748741e+06    0.000000e+00    9.379802e+04   -1.036745e+02    2.926193e+00    1.955519e+01   -1.111118e-08
   1.928671e-04    2.724437e+06   -5.420688e+00    2.724442e+06    0.000000e+00    9.324412e+04   -1.033686e+02    2.926193e+00    1.955507e+01   -1.111084e-08
   1.940117e-04    2.700352e+06   -6.342351e+00    2.700359e+06    0.000000e+00    9.269349e+04   -1.030637e+02    2.926193e+00    1.955494e+01   -1.111050e-08
   1.951632e-04    2.676483e+06   -4.611787e+00    2.676488e+06    0.000000e+00    9.214612e+04   -1.027597e+02    2.926193e+00    1.955481e+01   -1.111015e-08
   1.963215e-04    2.652824e+06   -4.236306e+00    2.652828e+06    0.000000e+00    9.160197e+04   -1.024565e+02    2.926193e+00    1.955468e+01   -1.110981e-08
   1.974866e-04    2.629372e+06   -5.174562e+00    2.629377e+06    0.000000e+00    9.106103e+04   -1.021543e+02    2.926193e+00    1.955455e+01   -1.110946e-08
   1.986587e-04    2.606127e+06   -6.610298e+00    2.606133e+06    0.000000e+00    9.052328e+04   -1.018529e+02    2.926193e+00    1.955442e+01   -1.110911e-08
   1.998377e-04    2.583090e+06   -4.769593e+00    2.583095e+06    0.000000e+00    8.998870e+04   -1.015524e+02    2.926193e+00    1.955429e+01   -1.110876e-08
   2.010238e-04    2.560256e+06   -4.230989e+00    2.560260e+06    0.000000e+00    8.945728e+04   -1.012529e+02    2.926193e+00    1.955416e+01   -1.110841e-08
   2.022168e-04    2.537622e+06   -4.965882e+00    2.537627e+06    0.000000e+00    8.892900e+04   -1.009542e+02    2.926193e+00    1.955402e+01   -1.110806e-08
   2.034170e-04    2.515188e+06   -6.882877e+00    2.515194e+06    0.000000e+00    8.840383e+04   -1.006563e+02    2.926193e+00    1.955389e+01   -1.110770e-08
   2.046242e-04    2.492955e+06   -4.932776e+00    2.492960e+06    0.000000e+00    8.788176e+04   -1.003594e+02    2.926193e+00    1.955375e+01   -1.110734e-08
