# All units in Hartree [AU] if not specified
# Convergence: Err(φ)=4.104e-11, Err(n_e)=9.187e-11, Err(IET)=9.942e-13, Q_net=-3.271e-07
# {"name":"Ar", "Z":18, "Zstar":0.2700614616705366, "A":39.948,  "μ[AU]": -1.6042148648e-02, "Te[AU]": 1.012e-03, "Ti[AU]": 1.012e-03, "rs[AU]": 1.372e+01 }
   r[AU]           n[AU]           nf[AU]          nb[AU]          n_ion[AU]       φtot[AU]        δVxc/δρ[Au]     U_ei[AU]        U_ii[AU]        g_ii            
   1.000000e-04    7.298704e+06    1.074365e+01    7.298693e+06    0.000000e+00    1.799152e+05   -1.434897e+02   -2.177193e+01    2.674868e+00   -2.899215e-28
   1.005935e-04    7.234194e+06    2.566013e+00    7.234191e+06    0.000000e+00    1.788532e+05   -1.430663e+02   -8.072552e+00    2.674859e+00   -2.899169e-28
   1.011905e-04    7.170270e+06    1.089679e+01    7.170259e+06    0.000000e+00    1.777975e+05   -1.426443e+02   -2.198532e+01    2.674849e+00   -2.899123e-28
   1.017911e-04    7.106898e+06    5.382425e+00    7.106892e+06    0.000000e+00    1.767480e+05   -1.422234e+02   -1.351033e+01    2.674840e+00   -2.899076e-28
   1.023952e-04    7.044095e+06    9.415133e+00    7.044085e+06    0.000000e+00    1.757047e+05   -1.418037e+02   -1.987998e+01    2.674830e+00   -2.899029e-28
   1.030029e-04    6.981842e+06    8.661808e+00    6.981833e+06    0.000000e+00    1.746676e+05   -1.413854e+02   -1.877029e+01    2.674821e+00   -2.898982e-28
   1.036142e-04    6.920137e+06    6.382674e+00    6.920131e+06    0.000000e+00    1.736366e+05   -1.409682e+02   -1.520260e+01    2.674811e+00   -2.898935e-28
   1.042292e-04    6.858984e+06    1.024396e+01    6.858974e+06    0.000000e+00    1.726116e+05   -1.405523e+02   -2.107014e+01    2.674801e+00   -2.898887e-28
   1.048478e-04    6.798359e+06    1.880523e+00    6.798357e+06    0.000000e+00    1.715927e+05   -1.401375e+02   -6.496314e+00    2.674792e+00   -2.898839e-28
   1.054700e-04    6.738286e+06    1.021335e+01    6.738276e+06    0.000000e+00    1.705798e+05   -1.397241e+02   -2.102689e+01    2.674782e+00   -2.898791e-28
   1.060960e-04    6.678732e+06    5.525792e+00    6.678726e+06    0.000000e+00    1.695729e+05   -1.393118e+02   -1.375894e+01    2.674772e+00   -2.898742e-28
   1.067257e-04    6.619711e+06    8.651577e+00    6.619702e+06    0.000000e+00    1.685720e+05   -1.389008e+02   -1.875492e+01    2.674762e+00   -2.898693e-28
   1.073591e-04    6.561208e+06    8.432459e+00    6.561200e+06    0.000000e+00    1.675769e+05   -1.384910e+02   -1.842634e+01    2.674752e+00   -2.898644e-28
   1.079962e-04    6.503220e+06    5.637455e+00    6.503214e+06    0.000000e+00    1.665877e+05   -1.380824e+02   -1.395121e+01    2.674742e+00   -2.898595e-28
   1.086372e-04    6.445751e+06    9.749235e+00    6.445741e+06    0.000000e+00    1.656044e+05   -1.376750e+02   -2.036341e+01    2.674732e+00   -2.898545e-28
   1.092819e-04    6.388777e+06    1.486760e+00    6.388776e+06    0.000000e+00    1.646268e+05   -1.372687e+02   -5.510180e+00    2.674722e+00   -2.898495e-28
   1.099305e-04    6.332323e+06    9.555378e+00    6.332314e+06    0.000000e+00    1.636550e+05   -1.368638e+02   -2.008445e+01    2.674712e+00   -2.898445e-28
   1.105830e-04    6.276356e+06    5.618921e+00    6.276351e+06    0.000000e+00    1.626890e+05   -1.364600e+02   -1.391939e+01    2.674701e+00   -2.898394e-28
   1.112393e-04    6.220890e+06    7.927446e+00    6.220882e+06    0.000000e+00    1.617286e+05   -1.360574e+02   -1.765784e+01    2.674691e+00   -2.898343e-28
   1.118995e-04    6.165912e+06    8.184792e+00    6.165904e+06    0.000000e+00    1.607739e+05   -1.356560e+02   -1.805136e+01    2.674681e+00   -2.898292e-28
   1.125636e-04    6.111416e+06    4.939381e+00    6.111411e+06    0.000000e+00    1.598249e+05   -1.352557e+02   -1.273012e+01    2.674670e+00   -2.898241e-28
   1.132316e-04    6.057409e+06    9.261343e+00    6.057400e+06    0.000000e+00    1.588814e+05   -1.348567e+02   -1.965660e+01    2.674660e+00   -2.898189e-28
   1.139037e-04    6.003868e+06    1.946139e+00    6.003866e+06    0.000000e+00    1.579435e+05   -1.344587e+02   -6.654231e+00    2.674649e+00   -2.898137e-28
   1.145797e-04    5.950814e+06    8.922936e+00    5.950805e+06    0.000000e+00    1.570112e+05   -1.340621e+02   -1.915847e+01    2.674639e+00   -2.898084e-28
   1.152597e-04    5.898218e+06    5.667952e+00    5.898213e+06    0.000000e+00    1.560843e+05   -1.336665e+02   -1.400335e+01    2.674628e+00   -2.898031e-28
   1.159437e-04    5.846093e+06    7.241403e+00    5.846085e+06    0.000000e+00    1.551629e+05   -1.332722e+02   -1.658826e+01    2.674617e+00   -2.897978e-28
   1.166319e-04    5.794427e+06    7.922450e+00    5.794419e+06    0.000000e+00    1.542470e+05   -1.328790e+02   -1.765014e+01    2.674606e+00   -2.897925e-28
   1.173241e-04    5.743213e+06    4.286116e+00    5.743208e+06    0.000000e+00    1.533364e+05   -1.324869e+02   -1.153715e+01    2.674595e+00   -2.897871e-28
   1.180204e-04    5.692459e+06    8.781853e+00    5.692451e+06    0.000000e+00    1.524313e+05   -1.320960e+02   -1.894925e+01    2.674584e+00   -2.897817e-28
   1.187208e-04    5.642144e+06    2.333602e+00    5.642141e+06    0.000000e+00    1.515314e+05   -1.317063e+02   -7.554733e+00    2.674573e+00   -2.897763e-28
   1.194254e-04    5.592285e+06    8.315932e+00    5.592277e+06    0.000000e+00    1.506369e+05   -1.313177e+02   -1.824946e+01    2.674562e+00   -2.897708e-28
   1.201342e-04    5.542858e+06    5.678418e+00    5.542852e+06    0.000000e+00    1.497477e+05   -1.309303e+02   -1.402117e+01    2.674551e+00   -2.897653e-28
   1.208472e-04    5.493872e+06    6.592082e+00    5.493865e+06    0.000000e+00    1.488637e+05   -1.305440e+02   -1.554572e+01    2.674540e+00   -2.897598e-28
   1.215644e-04    5.445318e+06    7.648658e+00    5.445310e+06    0.000000e+00    1.479849e+05   -1.301589e+02   -1.722672e+01    2.674529e+00   -2.897542e-28
   1.222859e-04    5.397188e+06    3.675387e+00    5.397185e+06    0.000000e+00    1.471113e+05   -1.297748e+02   -1.036844e+01    2.674517e+00   -2.897486e-28
   1.230117e-04    5.349493e+06    8.312081e+00    5.349484e+06    0.000000e+00    1.462428e+05   -1.293920e+02   -1.824368e+01    2.674506e+00   -2.897430e-28
   1.237417e-04    5.302208e+06    2.656664e+00    5.302206e+06    0.000000e+00    1.453795e+05   -1.290102e+02   -8.270609e+00    2.674494e+00   -2.897373e-28
   1.244761e-04    5.255352e+06    7.734151e+00    5.255345e+06    0.000000e+00    1.445213e+05   -1.286296e+02   -1.735952e+01    2.674483e+00   -2.897317e-28
   1.252149e-04    5.208903e+06    5.655304e+00    5.208897e+06    0.000000e+00    1.436681e+05   -1.282501e+02   -1.398176e+01    2.674471e+00   -2.897259e-28
   1.259580e-04    5.162867e+06    5.978100e+00    5.162861e+06    0.000000e+00    1.428200e+05   -1.278717e+02   -1.452931e+01    2.674460e+00   -2.897202e-28
   1.267056e-04    5.117238e+06    7.366259e+00    5.117231e+06    0.000000e+00    1.419769e+05   -1.274945e+02   -1.678453e+01    2.674448e+00   -2.897144e-28
   1.274576e-04    5.072007e+06    3.104994e+00    5.072004e+06    0.000000e+00    1.411387e+05   -1.271183e+02   -9.220313e+00    2.674436e+00   -2.897085e-28
   1.282140e-04    5.027185e+06    7.853106e+00    5.027177e+06    0.000000e+00    1.403055e+05   -1.267433e+02   -1.754286e+01    2.674424e+00   -2.897027e-28
   1.289750e-04    4.982749e+06    2.922149e+00    4.982746e+06    0.000000e+00    1.394772e+05   -1.263693e+02   -8.838591e+00    2.674412e+00   -2.896968e-28
   1.297404e-04    4.938715e+06    7.177268e+00    4.938708e+06    0.000000e+00    1.386538e+05   -1.259965e+02   -1.648639e+01    2.674400e+00   -2.896908e-28
   1.305104e-04    4.895064e+06    5.603088e+00    4.895059e+06    0.000000e+00    1.378353e+05   -1.256248e+02   -1.389212e+01    2.674388e+00   -2.896849e-28
   1.312850e-04    4.851801e+06    5.398070e+00    4.851795e+06    0.000000e+00    1.370216e+05   -1.252541e+02   -1.353770e+01    2.674376e+00   -2.896788e-28
   1.320642e-04    4.808921e+06    7.077757e+00    4.808914e+06    0.000000e+00    1.362126e+05   -1.248846e+02   -1.632812e+01    2.674364e+00   -2.896728e-28
   1.328480e-04    4.766414e+06    2.572805e+00    4.766411e+06    0.000000e+00    1.354085e+05   -1.245161e+02   -8.087550e+00    2.674351e+00   -2.896667e-28
   1.336364e-04    4.724292e+06    7.405807e+00    4.724285e+06    0.000000e+00    1.346091e+05   -1.241488e+02   -1.684717e+01    2.674339e+00   -2.896606e-28
   1.344295e-04    4.682533e+06    3.136256e+00    4.682530e+06    0.000000e+00    1.338144e+05   -1.237825e+02   -9.284915e+00    2.674326e+00   -2.896545e-28
   1.352274e-04    4.641151e+06    6.644869e+00    4.641144e+06    0.000000e+00    1.330244e+05   -1.234174e+02   -1.563142e+01    2.674314e+00   -2.896483e-28
   1.360299e-04    4.600130e+06    5.525796e+00    4.600124e+06    0.000000e+00    1.322391e+05   -1.230532e+02   -1.375895e+01    2.674301e+00   -2.896421e-28
   1.368372e-04    4.559472e+06    4.850604e+00    4.559467e+06    0.000000e+00    1.314584e+05   -1.226902e+02   -1.257122e+01    2.674288e+00   -2.896358e-28
   1.376494e-04    4.519175e+06    6.785346e+00    4.519169e+06    0.000000e+00    1.306823e+05   -1.223282e+02   -1.585929e+01    2.674276e+00   -2.896295e-28
   1.384663e-04    4.479229e+06    2.076766e+00    4.479226e+06    0.000000e+00    1.299108e+05   -1.219673e+02   -6.963672e+00    2.674263e+00   -2.896232e-28
   1.392881e-04    4.439644e+06    6.970878e+00    4.439637e+06    0.000000e+00    1.291438e+05   -1.216075e+02   -1.615754e+01    2.674250e+00   -2.896168e-28
   1.401148e-04    4.400401e+06    3.304605e+00    4.400398e+06    0.000000e+00    1.283814e+05   -1.212487e+02   -9.629113e+00    2.674237e+00   -2.896104e-28
   1.409463e-04    4.361511e+06    6.136463e+00    4.361505e+06    0.000000e+00    1.276235e+05   -1.208910e+02   -1.479426e+01    2.674224e+00   -2.896039e-28
   1.417828e-04    4.322961e+06    5.427033e+00    4.322956e+06    0.000000e+00    1.268700e+05   -1.205344e+02   -1.358833e+01    2.674211e+00   -2.895974e-28
   1.426243e-04    4.284752e+06    4.334324e+00    4.284748e+06    0.000000e+00    1.261210e+05   -1.201788e+02   -1.162653e+01    2.674197e+00   -2.895909e-28
   1.434708e-04    4.246883e+06    6.490943e+00    4.246877e+06    0.000000e+00    1.253764e+05   -1.198242e+02   -1.537956e+01    2.674184e+00   -2.895844e-28
   1.443223e-04    4.209342e+06    1.614894e+00    4.209340e+06    0.000000e+00    1.246362e+05   -1.194707e+02   -5.839059e+00    2.674171e+00   -2.895778e-28
   1.451788e-04    4.172142e+06    6.548854e+00    4.172136e+06    0.000000e+00    1.239003e+05   -1.191183e+02   -1.547502e+01    2.674157e+00   -2.895711e-28
   1.460404e-04    4.135264e+06    3.432292e+00    4.135260e+06    0.000000e+00    1.231688e+05   -1.187668e+02   -9.886625e+00    2.674144e+00   -2.895644e-28
   1.469072e-04    4.098716e+06    5.651495e+00    4.098710e+06    0.000000e+00    1.224416e+05   -1.184164e+02   -1.397525e+01    2.674130e+00   -2.895577e-28
   1.477791e-04    4.062488e+06    5.310028e+00    4.062483e+06    0.000000e+00    1.217187e+05   -1.180671e+02   -1.338492e+01    2.674116e+00   -2.895509e-28
   1.486561e-04    4.026580e+06    3.847866e+00    4.026576e+06    0.000000e+00    1.210001e+05   -1.177188e+02   -1.070421e+01    2.674103e+00   -2.895442e-28
   1.495384e-04    3.990993e+06    6.196215e+00    3.990987e+06    0.000000e+00    1.202857e+05   -1.173715e+02   -1.489407e+01    2.674089e+00   -2.895373e-28
   1.504259e-04    3.955713e+06    1.185285e+00    3.955711e+06    0.000000e+00    1.195755e+05   -1.170252e+02   -4.699472e+00    2.674075e+00   -2.895304e-28
   1.513187e-04    3.920754e+06    6.140125e+00    3.920748e+06    0.000000e+00    1.188696e+05   -1.166800e+02   -1.480041e+01    2.674061e+00   -2.895235e-28
   1.522167e-04    3.886097e+06    3.523931e+00    3.886094e+06    0.000000e+00    1.181677e+05   -1.163357e+02   -1.006949e+01    2.674047e+00   -2.895165e-28
   1.531201e-04    3.851750e+06    5.189359e+00    3.851745e+06    0.000000e+00    1.174701e+05   -1.159925e+02   -1.317316e+01    2.674032e+00   -2.895095e-28
   1.540289e-04    3.817706e+06    5.177669e+00    3.817700e+06    0.000000e+00    1.167765e+05   -1.156503e+02   -1.315272e+01    2.674018e+00   -2.895025e-28
   1.549430e-04    3.783960e+06    3.389889e+00    3.783956e+06    0.000000e+00    1.160870e+05   -1.153091e+02   -9.801154e+00    2.674004e+00   -2.894954e-28
   1.558626e-04    3.750517e+06    5.902602e+00    3.750511e+06    0.000000e+00    1.154016e+05   -1.149690e+02   -1.440147e+01    2.673989e+00   -2.894883e-28
   1.567877e-04    3.717362e+06    1.219948e+00    3.717360e+06    0.000000e+00    1.147203e+05   -1.146297e+02   -4.795625e+00    2.673975e+00   -2.894811e-28
   1.577182e-04    3.684509e+06    5.744961e+00    3.684503e+06    0.000000e+00    1.140429e+05   -1.142916e+02   -1.413427e+01    2.673960e+00   -2.894739e-28
   1.586542e-04    3.651940e+06    3.583697e+00    3.651936e+06    0.000000e+00    1.133696e+05   -1.139544e+02   -1.018759e+01    2.673945e+00   -2.894666e-28
   1.595958e-04    3.619661e+06    4.749407e+00    3.619657e+06    0.000000e+00    1.127002e+05   -1.136183e+02   -1.238820e+01    2.673931e+00   -2.894593e-28
   1.605430e-04    3.587668e+06    5.032530e+00    3.587663e+06    0.000000e+00    1.120348e+05   -1.132831e+02   -1.289595e+01    2.673916e+00   -2.894520e-28
   1.614958e-04    3.555954e+06    2.959073e+00    3.555951e+06    0.000000e+00    1.113733e+05   -1.129488e+02   -8.916173e+00    2.673901e+00   -2.894446e-28
   1.624543e-04    3.524526e+06    5.611345e+00    3.524520e+06    0.000000e+00    1.107157e+05   -1.126157e+02   -1.390635e+01    2.673886e+00   -2.894372e-28
   1.634185e-04    3.493368e+06    1.496762e+00    3.493367e+06    0.000000e+00    1.100620e+05   -1.122834e+02   -5.536016e+00    2.673870e+00   -2.894297e-28
   1.643883e-04    3.462494e+06    5.363521e+00    3.462489e+06    0.000000e+00    1.094121e+05   -1.119522e+02   -1.347775e+01    2.673855e+00   -2.894222e-28
   1.653640e-04    3.431887e+06    3.615364e+00    3.431883e+06    0.000000e+00    1.087661e+05   -1.116219e+02   -1.025031e+01    2.673840e+00   -2.894146e-28
   1.663454e-04    3.401553e+06    4.330959e+00    3.401548e+06    0.000000e+00    1.081239e+05   -1.112926e+02   -1.162020e+01    2.673824e+00   -2.894070e-28
   1.673327e-04    3.371487e+06    4.876903e+00    3.371482e+06    0.000000e+00    1.074855e+05   -1.109643e+02   -1.261820e+01    2.673809e+00   -2.893994e-28
   1.683258e-04    3.341683e+06    2.554130e+00    3.341681e+06    0.000000e+00    1.068508e+05   -1.106369e+02   -8.046217e+00    2.673793e+00   -2.893917e-28
   1.693248e-04    3.312148e+06    5.323504e+00    3.312143e+06    0.000000e+00    1.062199e+05   -1.103105e+02   -1.340840e+01    2.673778e+00   -2.893839e-28
   1.703297e-04    3.282868e+06    1.729002e+00    3.282866e+06    0.000000e+00    1.055928e+05   -1.099851e+02   -6.125302e+00    2.673762e+00   -2.893761e-28
   1.713406e-04    3.253853e+06    4.995868e+00    3.253848e+06    0.000000e+00    1.049693e+05   -1.096606e+02   -1.283106e+01    2.673746e+00   -2.893683e-28
   1.723575e-04    3.225090e+06    3.622341e+00    3.225086e+06    0.000000e+00    1.043495e+05   -1.093371e+02   -1.026414e+01    2.673730e+00   -2.893604e-28
   1.733804e-04    3.196582e+06    3.933311e+00    3.196579e+06    0.000000e+00    1.037333e+05   -1.090146e+02   -1.086864e+01    2.673714e+00   -2.893525e-28
   1.744094e-04    3.168328e+06    4.712823e+00    3.168323e+06    0.000000e+00    1.031208e+05   -1.086930e+02   -1.232243e+01    2.673698e+00   -2.893445e-28
   1.754445e-04    3.140319e+06    2.173803e+00    3.140317e+06    0.000000e+00    1.025119e+05   -1.083723e+02   -7.189419e+00    2.673681e+00   -2.893365e-28
   1.764858e-04    3.112563e+06    5.039975e+00    3.112558e+06    0.000000e+00    1.019066e+05   -1.080526e+02   -1.290907e+01    2.673665e+00   -2.893284e-28
   1.775332e-04    3.085047e+06    1.921312e+00    3.085045e+06    0.000000e+00    1.013048e+05   -1.077338e+02   -6.594547e+00    2.673648e+00   -2.893203e-28
   1.785869e-04    3.057780e+06    4.645758e+00    3.057775e+06    0.000000e+00    1.007067e+05   -1.074160e+02   -1.220050e+01    2.673632e+00   -2.893122e-28
   1.796468e-04    3.030749e+06    3.607807e+00    3.030746e+06    0.000000e+00    1.001120e+05   -1.070991e+02   -1.023529e+01    2.673615e+00   -2.893039e-28
   1.807130e-04    3.003959e+06    3.552448e+00    3.003956e+06    0.000000e+00    9.952085e+04   -1.067832e+02   -1.012609e+01    2.673598e+00   -2.892957e-28
   1.817855e-04    2.977406e+06    4.544192e+00    2.977402e+06    0.000000e+00    9.893319e+04   -1.064682e+02   -1.201500e+01    2.673582e+00   -2.892874e-28
   1.828644e-04    2.951085e+06    1.813651e+00    2.951083e+06    0.000000e+00    9.834899e+04   -1.061540e+02   -6.333498e+00    2.673565e+00   -2.892790e-28
   1.839497e-04    2.925001e+06    4.760404e+00    2.924997e+06    0.000000e+00    9.776824e+04   -1.058409e+02   -1.240809e+01    2.673547e+00   -2.892706e-28
   1.850414e-04    2.899143e+06    2.074472e+00    2.899141e+06    0.000000e+00    9.719092e+04   -1.055286e+02   -6.958275e+00    2.673530e+00   -2.892621e-28
   1.861396e-04    2.873518e+06    4.301287e+00    2.873513e+06    0.000000e+00    9.661701e+04   -1.052174e+02   -1.156534e+01    2.673513e+00   -2.892536e-28
   1.872443e-04    2.848116e+06    3.574192e+00    2.848112e+06    0.000000e+00    9.604648e+04   -1.049070e+02   -1.016894e+01    2.673496e+00   -2.892451e-28
   1.883556e-04    2.822939e+06    3.197635e+00    2.822936e+06    0.000000e+00    9.547931e+04   -1.045975e+02   -9.410979e+00    2.673478e+00   -2.892365e-28
   1.894735e-04    2.797986e+06    4.368694e+00    2.797982e+06    0.000000e+00    9.491550e+04   -1.042889e+02   -1.169094e+01    2.673461e+00   -2.892278e-28
   1.905980e-04    2.773250e+06    1.483164e+00    2.773248e+06    0.000000e+00    9.435501e+04   -1.039812e+02   -5.500847e+00    2.673443e+00   -2.892191e-28
   1.917292e-04    2.748738e+06    4.489890e+00    2.748733e+06    0.000000e+00    9.379782e+04   -1.036745e+02   -1.191488e+01    2.673425e+00   -2.892103e-28
   1.928671e-04    2.724437e+06    2.205906e+00    2.724435e+06    0.000000e+00    9.324393e+04   -1.033686e+02   -7.263625e+00    2.673407e+00   -2.892015e-28
   1.940117e-04    2.700355e+06    3.974662e+00    2.700351e+06    0.000000e+00    9.269330e+04   -1.030637e+02   -1.094815e+01    2.673389e+00   -2.891926e-28
   1.951632e-04    2.676484e+06    3.522398e+00    2.676480e+06    0.000000e+00    9.214592e+04   -1.027597e+02   -1.006643e+01    2.673371e+00   -2.891837e-28
   1.963215e-04    2.652823e+06    2.858702e+00    2.652820e+06    0.000000e+00    9.160177e+04   -1.024565e+02   -8.704379e+00    2.673353e+00   -2.891747e-28
   1.974866e-04    2.629373e+06    4.183996e+00    2.629369e+06    0.000000e+00    9.106083e+04   -1.021543e+02   -1.134526e+01    2.673335e+00   -2.891657e-28
   1.986587e-04    2.606127e+06    1.169163e+00    2.606126e+06    0.000000e+00    9.052308e+04   -1.018529e+02   -4.654269e+00    2.673316e+00   -2.891566e-28
   1.998377e-04    2.583092e+06    4.219342e+00    2.583087e+06    0.000000e+00    8.998851e+04   -1.015525e+02   -1.141183e+01    2.673298e+00   -2.891475e-28
   2.010238e-04    2.560255e+06    2.295319e+00    2.560253e+06    0.000000e+00    8.945709e+04   -1.012529e+02   -7.468166e+00    2.673279e+00   -2.891383e-28
   2.022168e-04    2.537623e+06    3.660085e+00    2.537620e+06    0.000000e+00    8.892880e+04   -1.009542e+02   -1.033851e+01    2.673260e+00   -2.891291e-28
   2.034170e-04    2.515190e+06    3.458590e+00    2.515187e+06    0.000000e+00    8.840363e+04   -1.006564e+02   -9.939094e+00    2.673241e+00   -2.891198e-28
   2.046242e-04    2.492955e+06    2.539859e+00    2.492952e+06    0.000000e+00    8.788156e+04   -1.003594e+02   -8.015004e+00    2.673222e+00   -2.891104e-28
