# All units in Hartree [AU] if not specified
# Convergence: Err(φ)=4.041e-11, Err(n_e)=8.482e-11, Err(IET)=9.240e-13, Q_net=3.229e-07
# {"name":"Ar", "Z":18, "Zstar":1.3209996532599568, "A":39.948,  "μ[AU]": -4.2996591584e-01, "Te[AU]": 1.125e-01, "Ti[AU]": 1.125e-01, "rs[AU]": 1.372e+01 }
   r[AU]           n[AU]           nf[AU]          nb[AU]          n_ion[AU]       φtot[AU]        δVxc/δρ[Au]     U_ei[AU]        U_ii[AU]        g_ii            
   1.000000e-04    7.298701e+06   -1.873294e+01    7.298719e+06    0.000000e+00    1.799157e+05   -1.434897e+02    6.519957e+00    7.086525e+01   -9.449027e-12
   1.005935e-04    7.234195e+06   -2.192536e+01    7.234217e+06    0.000000e+00    1.788537e+05   -1.430663e+02    6.519957e+00    7.086501e+01   -9.448877e-12
   1.011905e-04    7.170262e+06   -2.317269e+01    7.170285e+06    0.000000e+00    1.777980e+05   -1.426442e+02    6.519957e+00    7.086477e+01   -9.448726e-12
   1.017911e-04    7.106899e+06   -1.933201e+01    7.106918e+06    0.000000e+00    1.767485e+05   -1.422234e+02    6.519957e+00    7.086452e+01   -9.448574e-12
   1.023952e-04    7.044093e+06   -1.786126e+01    7.044111e+06    0.000000e+00    1.757052e+05   -1.418037e+02    6.519957e+00    7.086428e+01   -9.448422e-12
   1.030029e-04    6.981840e+06   -1.870383e+01    6.981859e+06    0.000000e+00    1.746680e+05   -1.413853e+02    6.519957e+00    7.086403e+01   -9.448268e-12
   1.036142e-04    6.920135e+06   -2.180046e+01    6.920156e+06    0.000000e+00    1.736370e+05   -1.409682e+02    6.519957e+00    7.086378e+01   -9.448113e-12
   1.042292e-04    6.858977e+06   -2.280961e+01    6.858999e+06    0.000000e+00    1.726121e+05   -1.405522e+02    6.519957e+00    7.086354e+01   -9.447958e-12
   1.048478e-04    6.798363e+06   -1.917707e+01    6.798383e+06    0.000000e+00    1.715932e+05   -1.401376e+02    6.519957e+00    7.086328e+01   -9.447801e-12
   1.054700e-04    6.738284e+06   -1.781545e+01    6.738302e+06    0.000000e+00    1.705803e+05   -1.397241e+02    6.519957e+00    7.086303e+01   -9.447644e-12
   1.060960e-04    6.678733e+06   -1.866264e+01    6.678751e+06    0.000000e+00    1.695734e+05   -1.393118e+02    6.519957e+00    7.086278e+01   -9.447486e-12
   1.067257e-04    6.619706e+06   -2.166591e+01    6.619727e+06    0.000000e+00    1.685724e+05   -1.389008e+02    6.519957e+00    7.086252e+01   -9.447327e-12
   1.073591e-04    6.561202e+06   -2.245838e+01    6.561225e+06    0.000000e+00    1.675774e+05   -1.384910e+02    6.519957e+00    7.086227e+01   -9.447166e-12
   1.079962e-04    6.503220e+06   -1.903119e+01    6.503239e+06    0.000000e+00    1.665882e+05   -1.380824e+02    6.519957e+00    7.086201e+01   -9.447005e-12
   1.086372e-04    6.445748e+06   -1.776653e+01    6.445766e+06    0.000000e+00    1.656048e+05   -1.376750e+02    6.519957e+00    7.086175e+01   -9.446843e-12
   1.092819e-04    6.388782e+06   -1.861138e+01    6.388801e+06    0.000000e+00    1.646273e+05   -1.372688e+02    6.519957e+00    7.086149e+01   -9.446680e-12
   1.099305e-04    6.332317e+06   -2.151411e+01    6.332339e+06    0.000000e+00    1.636555e+05   -1.368638e+02    6.519957e+00    7.086122e+01   -9.446516e-12
   1.105830e-04    6.276353e+06   -2.211782e+01    6.276376e+06    0.000000e+00    1.626894e+05   -1.364599e+02    6.519957e+00    7.086096e+01   -9.446351e-12
   1.112393e-04    6.220888e+06   -1.887803e+01    6.220907e+06    0.000000e+00    1.617291e+05   -1.360574e+02    6.519957e+00    7.086069e+01   -9.446185e-12
   1.118995e-04    6.165911e+06   -1.770151e+01    6.165928e+06    0.000000e+00    1.607744e+05   -1.356559e+02    6.519957e+00    7.086042e+01   -9.446018e-12
   1.125636e-04    6.111417e+06   -1.855875e+01    6.111436e+06    0.000000e+00    1.598253e+05   -1.352557e+02    6.519957e+00    7.086016e+01   -9.445850e-12
   1.132316e-04    6.057403e+06   -2.136193e+01    6.057424e+06    0.000000e+00    1.588819e+05   -1.348566e+02    6.519957e+00    7.085988e+01   -9.445682e-12
   1.139037e-04    6.003868e+06   -2.179551e+01    6.003890e+06    0.000000e+00    1.579440e+05   -1.344587e+02    6.519957e+00    7.085961e+01   -9.445512e-12
   1.145797e-04    5.950811e+06   -1.871827e+01    5.950829e+06    0.000000e+00    1.570116e+05   -1.340620e+02    6.519957e+00    7.085934e+01   -9.445341e-12
   1.152597e-04    5.898219e+06   -1.763381e+01    5.898237e+06    0.000000e+00    1.560848e+05   -1.336665e+02    6.519957e+00    7.085906e+01   -9.445169e-12
   1.159437e-04    5.846091e+06   -1.847974e+01    5.846110e+06    0.000000e+00    1.551634e+05   -1.332721e+02    6.519957e+00    7.085878e+01   -9.444996e-12
   1.166319e-04    5.794422e+06   -2.120221e+01    5.794443e+06    0.000000e+00    1.542474e+05   -1.328789e+02    6.519957e+00    7.085851e+01   -9.444822e-12
   1.173241e-04    5.743211e+06   -2.147460e+01    5.743232e+06    0.000000e+00    1.533369e+05   -1.324869e+02    6.519957e+00    7.085823e+01   -9.444647e-12
   1.180204e-04    5.692456e+06   -1.856446e+01    5.692475e+06    0.000000e+00    1.524317e+05   -1.320960e+02    6.519957e+00    7.085794e+01   -9.444471e-12
   1.187208e-04    5.642148e+06   -1.756341e+01    5.642165e+06    0.000000e+00    1.515319e+05   -1.317063e+02    6.519957e+00    7.085766e+01   -9.444294e-12
   1.194254e-04    5.592282e+06   -1.840012e+01    5.592300e+06    0.000000e+00    1.506374e+05   -1.313177e+02    6.519957e+00    7.085737e+01   -9.444116e-12
   1.201342e-04    5.542855e+06   -2.103531e+01    5.542876e+06    0.000000e+00    1.497481e+05   -1.309302e+02    6.519957e+00    7.085709e+01   -9.443937e-12
   1.208472e-04    5.493867e+06   -2.115539e+01    5.493889e+06    0.000000e+00    1.488641e+05   -1.305440e+02    6.519957e+00    7.085680e+01   -9.443756e-12
   1.215644e-04    5.445316e+06   -1.840996e+01    5.445334e+06    0.000000e+00    1.479853e+05   -1.301588e+02    6.519957e+00    7.085651e+01   -9.443575e-12
   1.222859e-04    5.397191e+06   -1.747892e+01    5.397208e+06    0.000000e+00    1.471117e+05   -1.297748e+02    6.519957e+00    7.085621e+01   -9.443393e-12
   1.230117e-04    5.349490e+06   -1.831239e+01    5.349508e+06    0.000000e+00    1.462433e+05   -1.293919e+02    6.519957e+00    7.085592e+01   -9.443209e-12
   1.237417e-04    5.302208e+06   -2.086163e+01    5.302229e+06    0.000000e+00    1.453800e+05   -1.290102e+02    6.519957e+00    7.085562e+01   -9.443025e-12
   1.244761e-04    5.255347e+06   -2.085217e+01    5.255368e+06    0.000000e+00    1.445218e+05   -1.286295e+02    6.519957e+00    7.085532e+01   -9.442839e-12
   1.252149e-04    5.208903e+06   -1.825500e+01    5.208921e+06    0.000000e+00    1.436686e+05   -1.282501e+02    6.519957e+00    7.085503e+01   -9.442652e-12
   1.259580e-04    5.162867e+06   -1.739611e+01    5.162884e+06    0.000000e+00    1.428205e+05   -1.278717e+02    6.519957e+00    7.085472e+01   -9.442464e-12
   1.267056e-04    5.117236e+06   -1.821717e+01    5.117254e+06    0.000000e+00    1.419773e+05   -1.274944e+02    6.519957e+00    7.085442e+01   -9.442275e-12
   1.274576e-04    5.072007e+06   -2.068830e+01    5.072027e+06    0.000000e+00    1.411392e+05   -1.271183e+02    6.519957e+00    7.085412e+01   -9.442085e-12
   1.282140e-04    5.027180e+06   -2.055687e+01    5.027200e+06    0.000000e+00    1.403060e+05   -1.267432e+02    6.519957e+00    7.085381e+01   -9.441894e-12
   1.289750e-04    4.982751e+06   -1.810424e+01    4.982769e+06    0.000000e+00    1.394777e+05   -1.263693e+02    6.519957e+00    7.085350e+01   -9.441702e-12
   1.297404e-04    4.938714e+06   -1.730032e+01    4.938731e+06    0.000000e+00    1.386543e+05   -1.259965e+02    6.519957e+00    7.085319e+01   -9.441508e-12
   1.305104e-04    4.895063e+06   -1.811634e+01    4.895082e+06    0.000000e+00    1.378357e+05   -1.256248e+02    6.519957e+00    7.085288e+01   -9.441314e-12
   1.312850e-04    4.851797e+06   -2.050277e+01    4.851818e+06    0.000000e+00    1.370220e+05   -1.252541e+02    6.519957e+00    7.085256e+01   -9.441118e-12
   1.320642e-04    4.808916e+06   -2.026913e+01    4.808937e+06    0.000000e+00    1.362131e+05   -1.248846e+02    6.519957e+00    7.085225e+01   -9.440921e-12
   1.328480e-04    4.766416e+06   -1.794308e+01    4.766434e+06    0.000000e+00    1.354090e+05   -1.245162e+02    6.519957e+00    7.085193e+01   -9.440723e-12
   1.336364e-04    4.724290e+06   -1.720284e+01    4.724307e+06    0.000000e+00    1.346096e+05   -1.241488e+02    6.519957e+00    7.085161e+01   -9.440524e-12
   1.344295e-04    4.682535e+06   -1.800682e+01    4.682553e+06    0.000000e+00    1.338149e+05   -1.237825e+02    6.519957e+00    7.085129e+01   -9.440323e-12
   1.352274e-04    4.641147e+06   -2.030613e+01    4.641167e+06    0.000000e+00    1.330249e+05   -1.234173e+02    6.519957e+00    7.085097e+01   -9.440121e-12
   1.360299e-04    4.600127e+06   -1.999415e+01    4.600147e+06    0.000000e+00    1.322396e+05   -1.230532e+02    6.519957e+00    7.085064e+01   -9.439919e-12
   1.368372e-04    4.559471e+06   -1.778617e+01    4.559489e+06    0.000000e+00    1.314589e+05   -1.226902e+02    6.519957e+00    7.085031e+01   -9.439715e-12
   1.376494e-04    4.519174e+06   -1.710037e+01    4.519191e+06    0.000000e+00    1.306828e+05   -1.223282e+02    6.519957e+00    7.084998e+01   -9.439509e-12
   1.384663e-04    4.479231e+06   -1.788912e+01    4.479249e+06    0.000000e+00    1.299112e+05   -1.219673e+02    6.519957e+00    7.084965e+01   -9.439303e-12
   1.392881e-04    4.439639e+06   -2.011105e+01    4.439659e+06    0.000000e+00    1.291443e+05   -1.216075e+02    6.519957e+00    7.084932e+01   -9.439095e-12
   1.401148e-04    4.400400e+06   -1.971425e+01    4.400420e+06    0.000000e+00    1.283818e+05   -1.212487e+02    6.519957e+00    7.084898e+01   -9.438886e-12
   1.409463e-04    4.361509e+06   -1.762891e+01    4.361527e+06    0.000000e+00    1.276239e+05   -1.208910e+02    6.519957e+00    7.084865e+01   -9.438676e-12
   1.417828e-04    4.322961e+06   -1.699620e+01    4.322978e+06    0.000000e+00    1.268704e+05   -1.205344e+02    6.519957e+00    7.084831e+01   -9.438465e-12
   1.426243e-04    4.284752e+06   -1.776902e+01    4.284769e+06    0.000000e+00    1.261214e+05   -1.201788e+02    6.519957e+00    7.084797e+01   -9.438252e-12
   1.434708e-04    4.246879e+06   -1.991169e+01    4.246898e+06    0.000000e+00    1.253768e+05   -1.198242e+02    6.519957e+00    7.084762e+01   -9.438038e-12
   1.443223e-04    4.209343e+06   -1.945140e+01    4.209362e+06    0.000000e+00    1.246366e+05   -1.194707e+02    6.519957e+00    7.084728e+01   -9.437823e-12
   1.451788e-04    4.172140e+06   -1.747089e+01    4.172158e+06    0.000000e+00    1.239008e+05   -1.191182e+02    6.519957e+00    7.084693e+01   -9.437607e-12
   1.460404e-04    4.135265e+06   -1.688153e+01    4.135282e+06    0.000000e+00    1.231693e+05   -1.187668e+02    6.519957e+00    7.084658e+01   -9.437389e-12
   1.469072e-04    4.098714e+06   -1.764002e+01    4.098732e+06    0.000000e+00    1.224421e+05   -1.184164e+02    6.519957e+00    7.084623e+01   -9.437170e-12
   1.477791e-04    4.062485e+06   -1.970949e+01    4.062505e+06    0.000000e+00    1.217192e+05   -1.180671e+02    6.519957e+00    7.084588e+01   -9.436950e-12
   1.486561e-04    4.026578e+06   -1.918463e+01    4.026598e+06    0.000000e+00    1.210006e+05   -1.177187e+02    6.519957e+00    7.084552e+01   -9.436728e-12
   1.495384e-04    3.990991e+06   -1.731236e+01    3.991008e+06    0.000000e+00    1.202862e+05   -1.173715e+02    6.519957e+00    7.084516e+01   -9.436505e-12
   1.504259e-04    3.955716e+06   -1.676570e+01    3.955733e+06    0.000000e+00    1.195760e+05   -1.170252e+02    6.519957e+00    7.084480e+01   -9.436281e-12
   1.513187e-04    3.920752e+06   -1.751167e+01    3.920769e+06    0.000000e+00    1.188700e+05   -1.166799e+02    6.519957e+00    7.084444e+01   -9.436055e-12
   1.522167e-04    3.886095e+06   -1.950274e+01    3.886115e+06    0.000000e+00    1.181682e+05   -1.163357e+02    6.519957e+00    7.084408e+01   -9.435828e-12
   1.531201e-04    3.851747e+06   -1.892817e+01    3.851766e+06    0.000000e+00    1.174705e+05   -1.159925e+02    6.519957e+00    7.084371e+01   -9.435600e-12
   1.540289e-04    3.817704e+06   -1.715704e+01    3.817721e+06    0.000000e+00    1.167770e+05   -1.156503e+02    6.519957e+00    7.084334e+01   -9.435370e-12
   1.549430e-04    3.783961e+06   -1.664582e+01    3.783977e+06    0.000000e+00    1.160875e+05   -1.153091e+02    6.519957e+00    7.084297e+01   -9.435139e-12
   1.558626e-04    3.750514e+06   -1.737058e+01    3.750531e+06    0.000000e+00    1.154021e+05   -1.149689e+02    6.519957e+00    7.084260e+01   -9.434907e-12
   1.567877e-04    3.717362e+06   -1.929311e+01    3.717381e+06    0.000000e+00    1.147207e+05   -1.146297e+02    6.519957e+00    7.084222e+01   -9.434673e-12
   1.577182e-04    3.684505e+06   -1.867634e+01    3.684524e+06    0.000000e+00    1.140434e+05   -1.142916e+02    6.519957e+00    7.084184e+01   -9.434438e-12
   1.586542e-04    3.651940e+06   -1.699381e+01    3.651957e+06    0.000000e+00    1.133700e+05   -1.139544e+02    6.519957e+00    7.084147e+01   -9.434202e-12
   1.595958e-04    3.619661e+06   -1.652249e+01    3.619677e+06    0.000000e+00    1.127007e+05   -1.136182e+02    6.519957e+00    7.084108e+01   -9.433964e-12
   1.605430e-04    3.587666e+06   -1.722940e+01    3.587683e+06    0.000000e+00    1.120353e+05   -1.132830e+02    6.519957e+00    7.084070e+01   -9.433725e-12
   1.614958e-04    3.555953e+06   -1.908629e+01    3.555972e+06    0.000000e+00    1.113738e+05   -1.129488e+02    6.519957e+00    7.084031e+01   -9.433484e-12
   1.624543e-04    3.524522e+06   -1.843072e+01    3.524541e+06    0.000000e+00    1.107162e+05   -1.126156e+02    6.519957e+00    7.083992e+01   -9.433242e-12
   1.634185e-04    3.493370e+06   -1.683720e+01    3.493387e+06    0.000000e+00    1.100625e+05   -1.122834e+02    6.519957e+00    7.083953e+01   -9.432998e-12
   1.643883e-04    3.462493e+06   -1.639570e+01    3.462509e+06    0.000000e+00    1.094126e+05   -1.119522e+02    6.519957e+00    7.083914e+01   -9.432753e-12
   1.653640e-04    3.431887e+06   -1.708384e+01    3.431904e+06    0.000000e+00    1.087666e+05   -1.116219e+02    6.519957e+00    7.083874e+01   -9.432507e-12
   1.663454e-04    3.401550e+06   -1.886703e+01    3.401569e+06    0.000000e+00    1.081244e+05   -1.112926e+02    6.519957e+00    7.083835e+01   -9.432259e-12
   1.673327e-04    3.371484e+06   -1.818850e+01    3.371502e+06    0.000000e+00    1.074860e+05   -1.109642e+02    6.519957e+00    7.083795e+01   -9.432009e-12
   1.683258e-04    3.341684e+06   -1.667343e+01    3.341701e+06    0.000000e+00    1.068513e+05   -1.106369e+02    6.519957e+00    7.083754e+01   -9.431758e-12
   1.693248e-04    3.312146e+06   -1.626579e+01    3.312163e+06    0.000000e+00    1.062204e+05   -1.103105e+02    6.519957e+00    7.083714e+01   -9.431506e-12
   1.703297e-04    3.282869e+06   -1.693487e+01    3.282886e+06    0.000000e+00    1.055932e+05   -1.099851e+02    6.519957e+00    7.083673e+01   -9.431252e-12
   1.713406e-04    3.253849e+06   -1.865553e+01    3.253868e+06    0.000000e+00    1.049697e+05   -1.096606e+02    6.519957e+00    7.083632e+01   -9.430997e-12
   1.723575e-04    3.225088e+06   -1.795195e+01    3.225106e+06    0.000000e+00    1.043499e+05   -1.093371e+02    6.519957e+00    7.083591e+01   -9.430740e-12
   1.733804e-04    3.196582e+06   -1.651426e+01    3.196598e+06    0.000000e+00    1.037338e+05   -1.090146e+02    6.519957e+00    7.083549e+01   -9.430482e-12
   1.744094e-04    3.168326e+06   -1.613495e+01    3.168343e+06    0.000000e+00    1.031212e+05   -1.086930e+02    6.519957e+00    7.083508e+01   -9.430222e-12
   1.754445e-04    3.140320e+06   -1.678254e+01    3.140337e+06    0.000000e+00    1.025123e+05   -1.083723e+02    6.519957e+00    7.083466e+01   -9.429960e-12
   1.764858e-04    3.112560e+06   -1.843302e+01    3.112578e+06    0.000000e+00    1.019070e+05   -1.080526e+02    6.519957e+00    7.083423e+01   -9.429697e-12
   1.775332e-04    3.085047e+06   -1.771837e+01    3.085065e+06    0.000000e+00    1.013053e+05   -1.077338e+02    6.519957e+00    7.083381e+01   -9.429433e-12
   1.785869e-04    3.057778e+06   -1.635170e+01    3.057795e+06    0.000000e+00    1.007071e+05   -1.074160e+02    6.519957e+00    7.083338e+01   -9.429167e-12
   1.796468e-04    3.030749e+06   -1.599718e+01    3.030765e+06    0.000000e+00    1.001124e+05   -1.070991e+02    6.519957e+00    7.083295e+01   -9.428899e-12
   1.807130e-04    3.003958e+06   -1.662713e+01    3.003975e+06    0.000000e+00    9.952130e+04   -1.067832e+02    6.519957e+00    7.083252e+01   -9.428630e-12
   1.817855e-04    2.977403e+06   -1.821395e+01    2.977421e+06    0.000000e+00    9.893364e+04   -1.064681e+02    6.519957e+00    7.083209e+01   -9.428359e-12
   1.828644e-04    2.951085e+06   -1.748968e+01    2.951102e+06    0.000000e+00    9.834944e+04   -1.061540e+02    6.519957e+00    7.083165e+01   -9.428086e-12
   1.839497e-04    2.925000e+06   -1.619183e+01    2.925016e+06    0.000000e+00    9.776870e+04   -1.058409e+02    6.519957e+00    7.083121e+01   -9.427812e-12
   1.850414e-04    2.899144e+06   -1.586108e+01    2.899160e+06    0.000000e+00    9.719137e+04   -1.055287e+02    6.519957e+00    7.083076e+01   -9.427537e-12
   1.861396e-04    2.873516e+06   -1.647296e+01    2.873532e+06    0.000000e+00    9.661746e+04   -1.052173e+02    6.519957e+00    7.083032e+01   -9.427259e-12
   1.872443e-04    2.848113e+06   -1.799764e+01    2.848131e+06    0.000000e+00    9.604693e+04   -1.049069e+02    6.519957e+00    7.082987e+01   -9.426980e-12
   1.883556e-04    2.822937e+06   -1.726456e+01    2.822955e+06    0.000000e+00    9.547977e+04   -1.045975e+02    6.519957e+00    7.082942e+01   -9.426700e-12
   1.894735e-04    2.797985e+06   -1.602897e+01    2.798001e+06    0.000000e+00    9.491595e+04   -1.042889e+02    6.519957e+00    7.082897e+01   -9.426417e-12
   1.905980e-04    2.773251e+06   -1.571889e+01    2.773267e+06    0.000000e+00    9.435546e+04   -1.039812e+02    6.519957e+00    7.082851e+01   -9.426133e-12
   1.917292e-04    2.748736e+06   -1.630836e+01    2.748752e+06    0.000000e+00    9.379828e+04   -1.036745e+02    6.519957e+00    7.082805e+01   -9.425848e-12
   1.928671e-04    2.724436e+06   -1.777290e+01    2.724453e+06    0.000000e+00    9.324438e+04   -1.033686e+02    6.519957e+00    7.082759e+01   -9.425560e-12
   1.940117e-04    2.700353e+06   -1.704667e+01    2.700370e+06    0.000000e+00    9.269375e+04   -1.030637e+02    6.519957e+00    7.082713e+01   -9.425271e-12
   1.951632e-04    2.676483e+06   -1.587127e+01    2.676499e+06    0.000000e+00    9.214637e+04   -1.027597e+02    6.519957e+00    7.082666e+01   -9.424981e-12
   1.963215e-04    2.652823e+06   -1.557838e+01    2.652839e+06    0.000000e+00    9.160222e+04   -1.024565e+02    6.519957e+00    7.082619e+01   -9.424688e-12
   1.974866e-04    2.629372e+06   -1.614656e+01    2.629388e+06    0.000000e+00    9.106128e+04   -1.021543e+02    6.519957e+00    7.082572e+01   -9.424394e-12
   1.986587e-04    2.606127e+06   -1.755115e+01    2.606144e+06    0.000000e+00    9.052354e+04   -1.018529e+02    6.519957e+00    7.082524e+01   -9.424098e-12
   1.998377e-04    2.583089e+06   -1.682557e+01    2.583106e+06    0.000000e+00    8.998896e+04   -1.015524e+02    6.519957e+00    7.082476e+01   -9.423800e-12
   2.010238e-04    2.560255e+06   -1.570590e+01    2.560271e+06    0.000000e+00    8.945754e+04   -1.012529e+02    6.519957e+00    7.082428e+01   -9.423501e-12
   2.022168e-04    2.537623e+06   -1.543200e+01    2.537638e+06    0.000000e+00    8.892925e+04   -1.009542e+02    6.519957e+00    7.082380e+01   -9.423200e-12
   2.034170e-04    2.515189e+06   -1.598084e+01    2.515205e+06    0.000000e+00    8.840408e+04   -1.006563e+02    6.519957e+00    7.082331e+01   -9.422897e-12
   2.046242e-04    2.492953e+06   -1.732929e+01    2.492970e+06    0.000000e+00    8.788201e+04   -1.003594e+02    6.519957e+00    7.082282e+01   -9.422592e-12
