# All units in Hartree [AU] if not specified
# Convergence: Err(φ)=4.022e-11, Err(n_e)=9.053e-11, Err(IET)=7.190e+00, Q_net=3.075e-07
# {"name":"Ar", "Z":18, "Zstar":0.3386514004796659, "A":39.948,  "μ[AU]": -7.7399089164e-02, "Te[AU]": 2.496e-02, "Ti[AU]": 2.496e-02, "rs[AU]": 1.372e+01 }
   r[AU]           n[AU]           nf[AU]          nb[AU]          n_ion[AU]       φtot[AU]        δVxc/δρ[Au]     U_ei[AU]        U_ii[AU]        g_ii            
   1.000000e-04    7.298697e+06   -7.326528e-01    7.298698e+06    0.000000e+00    1.799153e+05   -1.434897e+02    1.371210e+00    4.664297e+00  -3.811729e-124
   1.005935e-04    7.234200e+06    4.050418e+00    7.234196e+06    0.000000e+00    1.788533e+05   -1.430664e+02   -1.106162e+01    4.664281e+00  -3.811669e-124
   1.011905e-04    7.170268e+06    3.764607e+00    7.170264e+06    0.000000e+00    1.777976e+05   -1.426442e+02   -1.051117e+01    4.664266e+00  -3.811608e-124
   1.017911e-04    7.106896e+06   -1.428439e+00    7.106897e+06    0.000000e+00    1.767481e+05   -1.422233e+02    1.371210e+00    4.664249e+00  -3.811547e-124
   1.023952e-04    7.044092e+06    1.764008e+00    7.044090e+06    0.000000e+00    1.757048e+05   -1.418037e+02   -6.180689e+00    4.664233e+00  -3.811485e-124
   1.030029e-04    6.981842e+06    4.310662e+00    6.981838e+06    0.000000e+00    1.746677e+05   -1.413854e+02   -1.155180e+01    4.664217e+00  -3.811423e-124
   1.036142e-04    6.920138e+06    2.012374e+00    6.920136e+06    0.000000e+00    1.736367e+05   -1.409682e+02   -6.780559e+00    4.664201e+00  -3.811361e-124
   1.042292e-04    6.858977e+06   -1.973697e+00    6.858979e+06    0.000000e+00    1.726117e+05   -1.405522e+02    1.371210e+00    4.664184e+00  -3.811298e-124
   1.048478e-04    6.798365e+06    3.255196e+00    6.798362e+06    0.000000e+00    1.715928e+05   -1.401376e+02   -9.497479e+00    4.664168e+00  -3.811235e-124
   1.054700e-04    6.738285e+06    3.709285e+00    6.738281e+06    0.000000e+00    1.705799e+05   -1.397241e+02   -1.040379e+01    4.664151e+00  -3.811171e-124
   1.060960e-04    6.678730e+06   -4.580803e-01    6.678731e+06    0.000000e+00    1.695730e+05   -1.393118e+02    1.371210e+00    4.664134e+00  -3.811107e-124
   1.067257e-04    6.619708e+06    7.196087e-01    6.619707e+06    0.000000e+00    1.685721e+05   -1.389008e+02   -3.275694e+00    4.664117e+00  -3.811043e-124
   1.073591e-04    6.561208e+06    3.819115e+00    6.561204e+06    0.000000e+00    1.675770e+05   -1.384910e+02   -1.061760e+01    4.664100e+00  -3.810979e-124
   1.079962e-04    6.503221e+06    2.350811e+00    6.503219e+06    0.000000e+00    1.665878e+05   -1.380824e+02   -7.562447e+00    4.664083e+00  -3.810914e-124
   1.086372e-04    6.445743e+06   -3.178998e+00    6.445746e+06    0.000000e+00    1.656044e+05   -1.376749e+02    1.371210e+00    4.664066e+00  -3.810848e-124
   1.092819e-04    6.388783e+06    2.430892e+00    6.388780e+06    0.000000e+00    1.646269e+05   -1.372688e+02   -7.742076e+00    4.664049e+00  -3.810783e-124
   1.099305e-04    6.332322e+06    3.540606e+00    6.332318e+06    0.000000e+00    1.636551e+05   -1.368638e+02   -1.007088e+01    4.664032e+00  -3.810716e-124
   1.105830e-04    6.276356e+06    2.954175e-01    6.276355e+06    0.000000e+00    1.626891e+05   -1.364600e+02   -1.731044e+00    4.664014e+00  -3.810650e-124
   1.112393e-04    6.220886e+06   -3.234526e-01    6.220887e+06    0.000000e+00    1.617287e+05   -1.360573e+02    1.371210e+00    4.663997e+00  -3.810583e-124
   1.118995e-04    6.165912e+06    3.254447e+00    6.165908e+06    0.000000e+00    1.607740e+05   -1.356559e+02   -9.495945e+00    4.663979e+00  -3.810516e-124
   1.125636e-04    6.111418e+06    2.529707e+00    6.111416e+06    0.000000e+00    1.598250e+05   -1.352557e+02   -7.961504e+00    4.663961e+00  -3.810448e-124
   1.132316e-04    6.057402e+06   -2.377070e+00    6.057404e+06    0.000000e+00    1.588815e+05   -1.348566e+02    1.371210e+00    4.663943e+00  -3.810380e-124
   1.139037e-04    6.003872e+06    1.582198e+00    6.003870e+06    0.000000e+00    1.579436e+05   -1.344588e+02   -5.724562e+00    4.663925e+00  -3.810311e-124
   1.145797e-04    5.950813e+06    3.282482e+00    5.950809e+06    0.000000e+00    1.570113e+05   -1.340621e+02   -9.553083e+00    4.663907e+00  -3.810242e-124
   1.152597e-04    5.898218e+06    8.575885e-01    5.898217e+06    0.000000e+00    1.560844e+05   -1.336665e+02   -3.711040e+00    4.663889e+00  -3.810173e-124
   1.159437e-04    5.846089e+06   -1.351395e+00    5.846090e+06    0.000000e+00    1.551630e+05   -1.332721e+02    1.371210e+00    4.663871e+00  -3.810103e-124
   1.166319e-04    5.794426e+06    2.647008e+00    5.794423e+06    0.000000e+00    1.542471e+05   -1.328790e+02   -8.218470e+00    4.663852e+00  -3.810033e-124
   1.173241e-04    5.743215e+06    2.589147e+00    5.743213e+06    0.000000e+00    1.533365e+05   -1.324869e+02   -8.091890e+00    4.663834e+00  -3.809962e-124
   1.180204e-04    5.692454e+06   -1.410174e+00    5.692455e+06    0.000000e+00    1.524314e+05   -1.320960e+02    1.371210e+00    4.663815e+00  -3.809891e-124
   1.187208e-04    5.642147e+06    7.341775e-01    5.642146e+06    0.000000e+00    1.515315e+05   -1.317063e+02   -3.322838e+00    4.663796e+00  -3.809820e-124
   1.194254e-04    5.592284e+06    2.931366e+00    5.592281e+06    0.000000e+00    1.506370e+05   -1.313177e+02   -8.826464e+00    4.663777e+00  -3.809748e-124
   1.201342e-04    5.542858e+06    1.248529e+00    5.542857e+06    0.000000e+00    1.497478e+05   -1.309303e+02   -4.843133e+00    4.663758e+00  -3.809676e-124
   1.208472e-04    5.493867e+06   -2.356013e+00    5.493869e+06    0.000000e+00    1.488638e+05   -1.305440e+02    1.371210e+00    4.663739e+00  -3.809603e-124
   1.215644e-04    5.445317e+06    1.999138e+00    5.445315e+06    0.000000e+00    1.479850e+05   -1.301588e+02   -6.749352e+00    4.663720e+00  -3.809530e-124
   1.222859e-04    5.397192e+06    2.531521e+00    5.397189e+06    0.000000e+00    1.471114e+05   -1.297748e+02   -7.965528e+00    4.663701e+00  -3.809456e-124
   1.230117e-04    5.349488e+06   -6.509176e-01    5.349489e+06    0.000000e+00    1.462429e+05   -1.293919e+02    1.371210e+00    4.663681e+00  -3.809382e-124
   1.237417e-04    5.302210e+06   -1.210672e-01    5.302210e+06    0.000000e+00    1.453796e+05   -1.290102e+02    1.371210e+00    4.663662e+00  -3.809308e-124
   1.244761e-04    5.255351e+06    2.519856e+00    5.255349e+06    0.000000e+00    1.445214e+05   -1.286296e+02   -7.939593e+00    4.663642e+00  -3.809233e-124
   1.252149e-04    5.208903e+06    1.508791e+00    5.208902e+06    0.000000e+00    1.436682e+05   -1.282501e+02   -5.536133e+00    4.663623e+00  -3.809158e-124
   1.259580e-04    5.162862e+06   -3.060796e+00    5.162865e+06    0.000000e+00    1.428201e+05   -1.278717e+02    1.371210e+00    4.663603e+00  -3.809082e-124
   1.267056e-04    5.117237e+06    1.325599e+00    5.117235e+06    0.000000e+00    1.419770e+05   -1.274944e+02   -5.052604e+00    4.663583e+00  -3.809006e-124
   1.274576e-04    5.072011e+06    2.380663e+00    5.072009e+06    0.000000e+00    1.411388e+05   -1.271183e+02   -7.629772e+00    4.663562e+00  -3.808929e-124
   1.282140e-04    5.027182e+06   -6.587443e-02    5.027182e+06    0.000000e+00    1.403056e+05   -1.267432e+02    1.371210e+00    4.663542e+00  -3.808852e-124
   1.289750e-04    4.982750e+06   -9.690203e-01    4.982751e+06    0.000000e+00    1.394773e+05   -1.263693e+02    1.371210e+00    4.663522e+00  -3.808774e-124
   1.297404e-04    4.938714e+06    2.059700e+00    4.938712e+06    0.000000e+00    1.386539e+05   -1.259965e+02   -6.892410e+00    4.663501e+00  -3.808696e-124
   1.305104e-04    4.895065e+06    1.640575e+00    4.895063e+06    0.000000e+00    1.378354e+05   -1.256248e+02   -5.872778e+00    4.663481e+00  -3.808618e-124
   1.312850e-04    4.851797e+06   -2.129953e+00    4.851799e+06    0.000000e+00    1.370217e+05   -1.252541e+02    1.371210e+00    4.663460e+00  -3.808539e-124
   1.320642e-04    4.808919e+06    6.347754e-01    4.808918e+06    0.000000e+00    1.362127e+05   -1.248846e+02   -2.995411e+00    4.663439e+00  -3.808459e-124
   1.328480e-04    4.766418e+06    2.148318e+00    4.766416e+06    0.000000e+00    1.354086e+05   -1.245162e+02   -7.099057e+00    4.663418e+00  -3.808379e-124
   1.336364e-04    4.724289e+06    3.671113e-01    4.724289e+06    0.000000e+00    1.346092e+05   -1.241488e+02   -2.023608e+00    4.663397e+00  -3.808299e-124
   1.344295e-04    4.682532e+06   -1.809926e+00    4.682534e+06    0.000000e+00    1.338145e+05   -1.237825e+02    1.371210e+00    4.663376e+00  -3.808218e-124
   1.352274e-04    4.641150e+06    1.556753e+00    4.641149e+06    0.000000e+00    1.330245e+05   -1.234174e+02   -5.659682e+00    4.663355e+00  -3.808137e-124
   1.360299e-04    4.600130e+06    1.667719e+00    4.600129e+06    0.000000e+00    1.322392e+05   -1.230532e+02   -5.941004e+00    4.663333e+00  -3.808055e-124
   1.368372e-04    4.559470e+06   -1.379536e+00    4.559471e+06    0.000000e+00    1.314585e+05   -1.226902e+02    1.371210e+00    4.663311e+00  -3.807973e-124
   1.376494e-04    4.519173e+06   -6.009996e-02    4.519173e+06    0.000000e+00    1.306824e+05   -1.223282e+02    1.371210e+00    4.663290e+00  -3.807890e-124
   1.384663e-04    4.479232e+06    1.852921e+00    4.479231e+06    0.000000e+00    1.299109e+05   -1.219673e+02   -6.398212e+00    4.663268e+00  -3.807807e-124
   1.392881e-04    4.439642e+06    6.668951e-01    4.439641e+06    0.000000e+00    1.291439e+05   -1.216075e+02   -3.102865e+00    4.663246e+00  -3.807723e-124
   1.401148e-04    4.400399e+06   -2.619550e+00    4.400402e+06    0.000000e+00    1.283815e+05   -1.212487e+02    1.371210e+00    4.663224e+00  -3.807638e-124
   1.409463e-04    4.361510e+06    1.022955e+00    4.361509e+06    0.000000e+00    1.276235e+05   -1.208910e+02   -4.205618e+00    4.663201e+00  -3.807554e-124
   1.417828e-04    4.322962e+06    1.602695e+00    4.322960e+06    0.000000e+00    1.268701e+05   -1.205344e+02   -5.776944e+00    4.663179e+00  -3.807468e-124
   1.426243e-04    4.284751e+06   -7.896481e-01    4.284752e+06    0.000000e+00    1.261211e+05   -1.201787e+02    1.371210e+00    4.663157e+00  -3.807383e-124
   1.434708e-04    4.246880e+06   -7.577897e-01    4.246881e+06    0.000000e+00    1.253765e+05   -1.198242e+02    1.371210e+00    4.663134e+00  -3.807296e-124
   1.443223e-04    4.209346e+06    1.512732e+00    4.209345e+06    0.000000e+00    1.246362e+05   -1.194707e+02   -5.546299e+00    4.663111e+00  -3.807210e-124
   1.451788e-04    4.172141e+06    8.560115e-01    4.172140e+06    0.000000e+00    1.239004e+05   -1.191182e+02   -3.706180e+00    4.663088e+00  -3.807122e-124
   1.460404e-04    4.135262e+06   -2.651788e+00    4.135264e+06    0.000000e+00    1.231689e+05   -1.187668e+02    1.371210e+00    4.663065e+00  -3.807034e-124
   1.469072e-04    4.098715e+06    4.713065e-01    4.098714e+06    0.000000e+00    1.224417e+05   -1.184164e+02   -2.420819e+00    4.663042e+00  -3.806946e-124
   1.477791e-04    4.062489e+06    1.467295e+00    4.062487e+06    0.000000e+00    1.217188e+05   -1.180671e+02   -5.428222e+00    4.663019e+00  -3.806857e-124
   1.486561e-04    4.026580e+06   -3.430436e-01    4.026580e+06    0.000000e+00    1.210002e+05   -1.177188e+02    1.371210e+00    4.662995e+00  -3.806768e-124
   1.495384e-04    3.990989e+06   -1.448187e+00    3.990991e+06    0.000000e+00    1.202858e+05   -1.173714e+02    1.371210e+00    4.662972e+00  -3.806678e-124
   1.504259e-04    3.955717e+06    1.128293e+00    3.955715e+06    0.000000e+00    1.195756e+05   -1.170252e+02   -4.508164e+00    4.662948e+00  -3.806587e-124
   1.513187e-04    3.920753e+06    9.457962e-01    3.920752e+06    0.000000e+00    1.188697e+05   -1.166800e+02   -3.978206e+00    4.662924e+00  -3.806496e-124
   1.522167e-04    3.886096e+06   -1.928730e+00    3.886097e+06    0.000000e+00    1.181678e+05   -1.163357e+02    1.371210e+00    4.662900e+00  -3.806405e-124
   1.531201e-04    3.851749e+06   -9.599950e-02    3.851749e+06    0.000000e+00    1.174702e+05   -1.159925e+02    1.371210e+00    4.662876e+00  -3.806313e-124
   1.540289e-04    3.817706e+06    1.269954e+00    3.817704e+06    0.000000e+00    1.167766e+05   -1.156503e+02   -4.901515e+00    4.662851e+00  -3.806220e-124
   1.549430e-04    3.783960e+06   -8.246593e-03    3.783960e+06    0.000000e+00    1.160871e+05   -1.153091e+02    1.371210e+00    4.662827e+00  -3.806127e-124
   1.558626e-04    3.750512e+06   -2.127684e+00    3.750515e+06    0.000000e+00    1.154017e+05   -1.149689e+02    1.371210e+00    4.662802e+00  -3.806033e-124
   1.567877e-04    3.717365e+06    7.144166e-01    3.717364e+06    0.000000e+00    1.147204e+05   -1.146298e+02   -3.258919e+00    4.662778e+00  -3.805939e-124
   1.577182e-04    3.684508e+06    9.522691e-01    3.684507e+06    0.000000e+00    1.140430e+05   -1.142916e+02   -3.997424e+00    4.662753e+00  -3.805844e-124
   1.586542e-04    3.651938e+06   -1.344893e+00    3.651940e+06    0.000000e+00    1.133697e+05   -1.139544e+02    1.371210e+00    4.662728e+00  -3.805749e-124
   1.595958e-04    3.619660e+06   -6.617549e-01    3.619661e+06    0.000000e+00    1.127003e+05   -1.136182e+02    1.371210e+00    4.662702e+00  -3.805653e-124
   1.605430e-04    3.587668e+06    1.024124e+00    3.587666e+06    0.000000e+00    1.120349e+05   -1.132831e+02   -4.209053e+00    4.662677e+00  -3.805556e-124
   1.614958e-04    3.555955e+06    2.181342e-01    3.555955e+06    0.000000e+00    1.113734e+05   -1.129489e+02   -1.391665e+00    4.662651e+00  -3.805459e-124
   1.624543e-04    3.524521e+06   -2.796480e+00    3.524524e+06    0.000000e+00    1.107158e+05   -1.126156e+02    1.371210e+00    4.662626e+00  -3.805361e-124
   1.634185e-04    3.493371e+06    2.752345e-01    3.493371e+06    0.000000e+00    1.100621e+05   -1.122834e+02   -1.645102e+00    4.662600e+00  -3.805263e-124
   1.643883e-04    3.462493e+06    8.880687e-01    3.462492e+06    0.000000e+00    1.094122e+05   -1.119522e+02   -3.804259e+00    4.662574e+00  -3.805164e-124
   1.653640e-04    3.431886e+06   -8.848495e-01    3.431887e+06    0.000000e+00    1.087662e+05   -1.116219e+02    1.371210e+00    4.662548e+00  -3.805065e-124
   1.663454e-04    3.401551e+06   -1.232193e+00    3.401552e+06    0.000000e+00    1.081240e+05   -1.112926e+02    1.371210e+00    4.662522e+00  -3.804965e-124
   1.673327e-04    3.371486e+06    7.347827e-01    3.371485e+06    0.000000e+00    1.074856e+05   -1.109643e+02   -3.324789e+00    4.662495e+00  -3.804864e-124
   1.683258e-04    3.341685e+06    3.492715e-01    3.341684e+06    0.000000e+00    1.068509e+05   -1.106369e+02   -1.952535e+00    4.662469e+00  -3.804763e-124
   1.693248e-04    3.312144e+06   -2.312085e+00    3.312146e+06    0.000000e+00    1.062200e+05   -1.103105e+02    1.371210e+00    4.662442e+00  -3.804661e-124
   1.703297e-04    3.282869e+06   -1.795631e-01    3.282870e+06    0.000000e+00    1.055928e+05   -1.099851e+02    1.371210e+00    4.662415e+00  -3.804559e-124
   1.713406e-04    3.253852e+06    7.646470e-01    3.253852e+06    0.000000e+00    1.049694e+05   -1.096606e+02   -3.420343e+00    4.662388e+00  -3.804456e-124
   1.723575e-04    3.225089e+06   -5.389733e-01    3.225090e+06    0.000000e+00    1.043495e+05   -1.093371e+02    1.371210e+00    4.662361e+00  -3.804352e-124
   1.733804e-04    3.196580e+06   -1.796340e+00    3.196582e+06    0.000000e+00    1.037334e+05   -1.090145e+02    1.371210e+00    4.662333e+00  -3.804248e-124
   1.744094e-04    3.168327e+06    4.130264e-01    3.168327e+06    0.000000e+00    1.031209e+05   -1.086930e+02   -2.202174e+00    4.662306e+00  -3.804143e-124
   1.754445e-04    3.140321e+06    4.090223e-01    3.140321e+06    0.000000e+00    1.025120e+05   -1.083723e+02   -2.186942e+00    4.662278e+00  -3.804038e-124
   1.764858e-04    3.112560e+06   -1.746334e+00    3.112562e+06    0.000000e+00    1.019067e+05   -1.080526e+02    1.371210e+00    4.662250e+00  -3.803932e-124
   1.775332e-04    3.085048e+06   -6.440567e-01    3.085049e+06    0.000000e+00    1.013049e+05   -1.077338e+02    1.371210e+00    4.662222e+00  -3.803825e-124
   1.785869e-04    3.057779e+06    5.919165e-01    3.057779e+06    0.000000e+00    1.007067e+05   -1.074160e+02   -2.849568e+00    4.662194e+00  -3.803718e-124
   1.796468e-04    3.030749e+06   -2.938862e-01    3.030749e+06    0.000000e+00    1.001121e+05   -1.070991e+02    1.371210e+00    4.662166e+00  -3.803610e-124
   1.807130e-04    3.003957e+06   -2.356130e+00    3.003959e+06    0.000000e+00    9.952094e+04   -1.067831e+02    1.371210e+00    4.662137e+00  -3.803501e-124
   1.817855e-04    2.977406e+06    6.667416e-02    2.977406e+06    0.000000e+00    9.893328e+04   -1.064682e+02   -5.966348e-01    4.662108e+00  -3.803392e-124
   1.828644e-04    2.951087e+06    3.973887e-01    2.951087e+06    0.000000e+00    9.834908e+04   -1.061541e+02   -2.142113e+00    4.662080e+00  -3.803282e-124
   1.839497e-04    2.924999e+06   -1.296070e+00    2.925000e+06    0.000000e+00    9.776833e+04   -1.058409e+02    1.371210e+00    4.662051e+00  -3.803171e-124
   1.850414e-04    2.899143e+06   -1.112752e+00    2.899144e+06    0.000000e+00    9.719101e+04   -1.055287e+02    1.371210e+00    4.662021e+00  -3.803060e-124
   1.861396e-04    2.873517e+06    3.789098e-01    2.873517e+06    0.000000e+00    9.661710e+04   -1.052174e+02   -2.070104e+00    4.661992e+00  -3.802948e-124
   1.872443e-04    2.848116e+06   -1.273425e-01    2.848116e+06    0.000000e+00    9.604657e+04   -1.049070e+02    1.371210e+00    4.661962e+00  -3.802836e-124
   1.883556e-04    2.822937e+06   -2.571622e+00    2.822939e+06    0.000000e+00    9.547941e+04   -1.045974e+02    1.371210e+00    4.661933e+00  -3.802722e-124
   1.894735e-04    2.797985e+06   -2.990350e-01    2.797985e+06    0.000000e+00    9.491559e+04   -1.042889e+02    1.371210e+00    4.661903e+00  -3.802609e-124
   1.905980e-04    2.773252e+06    3.328870e-01    2.773252e+06    0.000000e+00    9.435510e+04   -1.039813e+02   -1.886164e+00    4.661873e+00  -3.802494e-124
   1.917292e-04    2.748736e+06   -9.504899e-01    2.748737e+06    0.000000e+00    9.379791e+04   -1.036745e+02    1.371210e+00    4.661842e+00  -3.802379e-124
   1.928671e-04    2.724437e+06   -1.581062e+00    2.724438e+06    0.000000e+00    9.324402e+04   -1.033686e+02    1.371210e+00    4.661812e+00  -3.802263e-124
   1.940117e-04    2.700355e+06    1.319096e-01    2.700354e+06    0.000000e+00    9.269339e+04   -1.030637e+02   -9.692855e-01    4.661781e+00  -3.802146e-124
   1.951632e-04    2.676484e+06   -3.785502e-02    2.676484e+06    0.000000e+00    9.214601e+04   -1.027597e+02    1.371210e+00    4.661750e+00  -3.802029e-124
   1.963215e-04    2.652822e+06   -2.030354e+00    2.652824e+06    0.000000e+00    9.160186e+04   -1.024565e+02    1.371210e+00    4.661719e+00  -3.801911e-124
   1.974866e-04    2.629372e+06   -6.749444e-01    2.629373e+06    0.000000e+00    9.106092e+04   -1.021543e+02    1.371210e+00    4.661688e+00  -3.801792e-124
   1.986587e-04    2.606129e+06    2.195171e-01    2.606129e+06    0.000000e+00    9.052317e+04   -1.018529e+02   -1.398005e+00    4.661657e+00  -3.801673e-124
   1.998377e-04    2.583090e+06   -6.899954e-01    2.583091e+06    0.000000e+00    8.998860e+04   -1.015524e+02    1.371210e+00    4.661625e+00  -3.801553e-124
   2.010238e-04    2.560254e+06   -2.048521e+00    2.560256e+06    0.000000e+00    8.945718e+04   -1.012528e+02    1.371210e+00    4.661594e+00  -3.801432e-124
   2.022168e-04    2.537623e+06   -1.389181e-01    2.537623e+06    0.000000e+00    8.892889e+04   -1.009542e+02    1.371210e+00    4.661562e+00  -3.801311e-124
   2.034170e-04    2.515190e+06   -6.209819e-03    2.515190e+06    0.000000e+00    8.840372e+04   -1.006564e+02    1.371210e+00    4.661530e+00  -3.801188e-124
   2.046242e-04    2.492954e+06   -1.594074e+00    2.492956e+06    0.000000e+00    8.788165e+04   -1.003594e+02    1.371210e+00    4.661497e+00  -3.801065e-124
