# All units in Hartree [AU] if not specified
# Convergence: Err(φ)=4.006e-11, Err(n_e)=9.716e-11, Err(IET)=3.360e+00, Q_net=3.563e-07
# {"name":"Ar", "Z":18, "Zstar":0.37660536031365766, "A":39.948,  "μ[AU]": -8.5781973988e-02, "Te[AU]": 2.751e-02, "Ti[AU]": 2.751e-02, "rs[AU]": 1.372e+01 }
   r[AU]           n[AU]           nf[AU]          nb[AU]          n_ion[AU]       φtot[AU]        δVxc/δρ[Au]     U_ei[AU]        U_ii[AU]        g_ii            
   1.000000e-04    7.298696e+06   -2.271381e+00    7.298699e+06    0.000000e+00    1.799153e+05   -1.434897e+02    1.517780e+00    5.781311e+00   -8.938240e-08
   1.005935e-04    7.234198e+06    1.432935e+00    7.234197e+06    0.000000e+00    1.788533e+05   -1.430663e+02   -5.352119e+00    5.781292e+00   -8.938098e-08
   1.011905e-04    7.170269e+06    3.919265e+00    7.170265e+06    0.000000e+00    1.777976e+05   -1.426442e+02   -1.082485e+01    5.781272e+00   -8.937955e-08
   1.017911e-04    7.106899e+06    1.618410e+00    7.106898e+06    0.000000e+00    1.767481e+05   -1.422234e+02   -5.830613e+00    5.781252e+00   -8.937812e-08
   1.023952e-04    7.044088e+06   -2.728987e+00    7.044090e+06    0.000000e+00    1.757048e+05   -1.418037e+02    1.517780e+00    5.781232e+00   -8.937667e-08
   1.030029e-04    6.981841e+06    2.702042e+00    6.981838e+06    0.000000e+00    1.746677e+05   -1.413854e+02   -8.351721e+00    5.781212e+00   -8.937522e-08
   1.036142e-04    6.920140e+06    3.423213e+00    6.920136e+06    0.000000e+00    1.736367e+05   -1.409682e+02   -9.851050e+00    5.781192e+00   -8.937376e-08
   1.042292e-04    6.858979e+06   -4.423926e-01    6.858979e+06    0.000000e+00    1.726117e+05   -1.405523e+02    1.517780e+00    5.781171e+00   -8.937228e-08
   1.048478e-04    6.798362e+06   -3.156088e-01    6.798362e+06    0.000000e+00    1.715928e+05   -1.401376e+02    1.517780e+00    5.781151e+00   -8.937080e-08
   1.054700e-04    6.738285e+06    3.289418e+00    6.738281e+06    0.000000e+00    1.705799e+05   -1.397241e+02   -9.580676e+00    5.781130e+00   -8.936932e-08
   1.060960e-04    6.678734e+06    2.380210e+00    6.678731e+06    0.000000e+00    1.695730e+05   -1.393119e+02   -7.642822e+00    5.781109e+00   -8.936782e-08
   1.067257e-04    6.619704e+06   -2.914642e+00    6.619707e+06    0.000000e+00    1.685721e+05   -1.389008e+02    1.517780e+00    5.781089e+00   -8.936631e-08
   1.073591e-04    6.561206e+06    1.365443e+00    6.561205e+06    0.000000e+00    1.675770e+05   -1.384910e+02   -5.173343e+00    5.781068e+00   -8.936480e-08
   1.079962e-04    6.503223e+06    3.270274e+00    6.503219e+06    0.000000e+00    1.665878e+05   -1.380824e+02   -9.542065e+00    5.781046e+00   -8.936327e-08
   1.086372e-04    6.445747e+06    8.505540e-01    6.445746e+06    0.000000e+00    1.656045e+05   -1.376750e+02   -3.703338e+00    5.781025e+00   -8.936174e-08
   1.092819e-04    6.388779e+06   -2.210348e+00    6.388781e+06    0.000000e+00    1.646269e+05   -1.372688e+02    1.517780e+00    5.781004e+00   -8.936020e-08
   1.099305e-04    6.332321e+06    2.377106e+00    6.332319e+06    0.000000e+00    1.636551e+05   -1.368638e+02   -7.635851e+00    5.780982e+00   -8.935865e-08
   1.105830e-04    6.276359e+06    2.706703e+00    6.276356e+06    0.000000e+00    1.626891e+05   -1.364600e+02   -8.361750e+00    5.780961e+00   -8.935709e-08
   1.112393e-04    6.220886e+06   -1.119321e+00    6.220887e+06    0.000000e+00    1.617287e+05   -1.360573e+02    1.517780e+00    5.780939e+00   -8.935552e-08
   1.118995e-04    6.165909e+06   -1.559270e-01    6.165909e+06    0.000000e+00    1.607740e+05   -1.356559e+02    1.517780e+00    5.780917e+00   -8.935394e-08
   1.125636e-04    6.111419e+06    2.789170e+00    6.111416e+06    0.000000e+00    1.598250e+05   -1.352557e+02   -8.538998e+00    5.780895e+00   -8.935235e-08
   1.132316e-04    6.057407e+06    1.654291e+00    6.057405e+06    0.000000e+00    1.588815e+05   -1.348566e+02   -5.921163e+00    5.780873e+00   -8.935075e-08
   1.139037e-04    6.003867e+06   -3.451083e+00    6.003871e+06    0.000000e+00    1.579436e+05   -1.344587e+02    1.517780e+00    5.780851e+00   -8.934915e-08
   1.145797e-04    5.950811e+06    1.245328e+00    5.950810e+06    0.000000e+00    1.570113e+05   -1.340621e+02   -4.848234e+00    5.780828e+00   -8.934753e-08
   1.152597e-04    5.898221e+06    2.667482e+00    5.898218e+06    0.000000e+00    1.560844e+05   -1.336665e+02   -8.276796e+00    5.780806e+00   -8.934590e-08
   1.159437e-04    5.846091e+06    1.743615e-01    5.846090e+06    0.000000e+00    1.551630e+05   -1.332721e+02   -1.198382e+00    5.780783e+00   -8.934427e-08
   1.166319e-04    5.794422e+06   -1.813461e+00    5.794424e+06    0.000000e+00    1.542471e+05   -1.328789e+02    1.517780e+00    5.780761e+00   -8.934262e-08
   1.173241e-04    5.743215e+06    2.051687e+00    5.743213e+06    0.000000e+00    1.533365e+05   -1.324869e+02   -6.887397e+00    5.780738e+00   -8.934097e-08
   1.180204e-04    5.692458e+06    2.056460e+00    5.692456e+06    0.000000e+00    1.524314e+05   -1.320960e+02   -6.898548e+00    5.780715e+00   -8.933930e-08
   1.187208e-04    5.642145e+06   -1.697662e+00    5.642146e+06    0.000000e+00    1.515315e+05   -1.317063e+02    1.517780e+00    5.780691e+00   -8.933763e-08
   1.194254e-04    5.592281e+06   -6.727789e-02    5.592281e+06    0.000000e+00    1.506370e+05   -1.313177e+02    1.517780e+00    5.780668e+00   -8.933594e-08
   1.201342e-04    5.542860e+06    2.322465e+00    5.542857e+06    0.000000e+00    1.497478e+05   -1.309303e+02   -7.512413e+00    5.780645e+00   -8.933425e-08
   1.208472e-04    5.493871e+06    1.010905e+00    5.493870e+06    0.000000e+00    1.488638e+05   -1.305440e+02   -4.184328e+00    5.780621e+00   -8.933254e-08
   1.215644e-04    5.445312e+06   -3.579949e+00    5.445315e+06    0.000000e+00    1.479850e+05   -1.301588e+02    1.517780e+00    5.780597e+00   -8.933083e-08
   1.222859e-04    5.397191e+06    1.093465e+00    5.397190e+06    0.000000e+00    1.471114e+05   -1.297748e+02   -4.423172e+00    5.780573e+00   -8.932910e-08
   1.230117e-04    5.349491e+06    2.107794e+00    5.349489e+06    0.000000e+00    1.462429e+05   -1.293920e+02   -7.019012e+00    5.780549e+00   -8.932736e-08
   1.237417e-04    5.302210e+06   -4.206420e-01    5.302210e+06    0.000000e+00    1.453796e+05   -1.290102e+02    1.517780e+00    5.780525e+00   -8.932562e-08
   1.244761e-04    5.255348e+06   -1.522287e+00    5.255349e+06    0.000000e+00    1.445214e+05   -1.286296e+02    1.517780e+00    5.780501e+00   -8.932386e-08
   1.252149e-04    5.208904e+06    1.724638e+00    5.208902e+06    0.000000e+00    1.436682e+05   -1.282501e+02   -6.097091e+00    5.780476e+00   -8.932210e-08
   1.259580e-04    5.162867e+06    1.470239e+00    5.162866e+06    0.000000e+00    1.428201e+05   -1.278717e+02   -5.449679e+00    5.780452e+00   -8.932032e-08
   1.267056e-04    5.117234e+06   -2.188367e+00    5.117236e+06    0.000000e+00    1.419770e+05   -1.274944e+02    1.517780e+00    5.780427e+00   -8.931853e-08
   1.274576e-04    5.072009e+06   -3.777175e-02    5.072009e+06    0.000000e+00    1.411388e+05   -1.271183e+02    1.517780e+00    5.780402e+00   -8.931673e-08
   1.282140e-04    5.027184e+06    1.878440e+00    5.027182e+06    0.000000e+00    1.403056e+05   -1.267433e+02   -6.473862e+00    5.780377e+00   -8.931493e-08
   1.289750e-04    4.982752e+06    4.440375e-01    4.982751e+06    0.000000e+00    1.394773e+05   -1.263693e+02   -2.333582e+00    5.780352e+00   -8.931311e-08
   1.297404e-04    4.938710e+06   -3.064376e+00    4.938713e+06    0.000000e+00    1.386539e+05   -1.259965e+02    1.517780e+00    5.780327e+00   -8.931128e-08
   1.305104e-04    4.895064e+06    9.205994e-01    4.895063e+06    0.000000e+00    1.378354e+05   -1.256248e+02   -3.916431e+00    5.780301e+00   -8.930943e-08
   1.312850e-04    4.851801e+06    1.603437e+00    4.851800e+06    0.000000e+00    1.370217e+05   -1.252542e+02   -5.792603e+00    5.780275e+00   -8.930758e-08
   1.320642e-04    4.808918e+06   -9.239816e-01    4.808919e+06    0.000000e+00    1.362127e+05   -1.248846e+02    1.517780e+00    5.780250e+00   -8.930572e-08
   1.328480e-04    4.766415e+06   -1.299903e+00    4.766416e+06    0.000000e+00    1.354086e+05   -1.245161e+02    1.517780e+00    5.780224e+00   -8.930385e-08
   1.336364e-04    4.724291e+06    1.401082e+00    4.724289e+06    0.000000e+00    1.346092e+05   -1.241488e+02   -5.268142e+00    5.780198e+00   -8.930196e-08
   1.344295e-04    4.682536e+06    9.448141e-01    4.682535e+06    0.000000e+00    1.338145e+05   -1.237825e+02   -3.989099e+00    5.780171e+00   -8.930006e-08
   1.352274e-04    4.641146e+06   -2.590542e+00    4.641149e+06    0.000000e+00    1.330245e+05   -1.234173e+02    1.517780e+00    5.780145e+00   -8.929816e-08
   1.360299e-04    4.600129e+06   -5.370774e-02    4.600129e+06    0.000000e+00    1.322392e+05   -1.230532e+02    1.517780e+00    5.780118e+00   -8.929624e-08
   1.368372e-04    4.559473e+06    1.464220e+00    4.559472e+06    0.000000e+00    1.314585e+05   -1.226902e+02   -5.433938e+00    5.780092e+00   -8.929431e-08
   1.376494e-04    4.519173e+06   -5.670512e-02    4.519173e+06    0.000000e+00    1.306824e+05   -1.223282e+02    1.517780e+00    5.780065e+00   -8.929237e-08
   1.384663e-04    4.479228e+06   -2.661005e+00    4.479231e+06    0.000000e+00    1.299109e+05   -1.219673e+02    1.517780e+00    5.780038e+00   -8.929041e-08
   1.392881e-04    4.439643e+06    7.310129e-01    4.439642e+06    0.000000e+00    1.291439e+05   -1.216075e+02   -3.326574e+00    5.780010e+00   -8.928845e-08
   1.401148e-04    4.400403e+06    1.137768e+00    4.400402e+06    0.000000e+00    1.283815e+05   -1.212487e+02   -4.548832e+00    5.779983e+00   -8.928647e-08
   1.409463e-04    4.361508e+06   -1.357982e+00    4.361510e+06    0.000000e+00    1.276236e+05   -1.208910e+02    1.517780e+00    5.779956e+00   -8.928448e-08
   1.417828e-04    4.322959e+06   -1.146881e+00    4.322961e+06    0.000000e+00    1.268701e+05   -1.205344e+02    1.517780e+00    5.779928e+00   -8.928249e-08
   1.426243e-04    4.284753e+06    1.094212e+00    4.284752e+06    0.000000e+00    1.261211e+05   -1.201788e+02   -4.425304e+00    5.779900e+00   -8.928047e-08
   1.434708e-04    4.246882e+06    4.775373e-01    4.246881e+06    0.000000e+00    1.253765e+05   -1.198242e+02   -2.457581e+00    5.779872e+00   -8.927845e-08
   1.443223e-04    4.209342e+06   -2.926777e+00    4.209345e+06    0.000000e+00    1.246363e+05   -1.194707e+02    1.517780e+00    5.779844e+00   -8.927641e-08
   1.451788e-04    4.172140e+06   -9.767105e-02    4.172140e+06    0.000000e+00    1.239004e+05   -1.191182e+02    1.517780e+00    5.779815e+00   -8.927437e-08
   1.460404e-04    4.135266e+06    1.081209e+00    4.135265e+06    0.000000e+00    1.231689e+05   -1.187668e+02   -4.388011e+00    5.779787e+00   -8.927231e-08
   1.469072e-04    4.098714e+06   -4.898885e-01    4.098715e+06    0.000000e+00    1.224417e+05   -1.184164e+02    1.517780e+00    5.779758e+00   -8.927024e-08
   1.477791e-04    4.062485e+06   -2.342821e+00    4.062488e+06    0.000000e+00    1.217188e+05   -1.180671e+02    1.517780e+00    5.779729e+00   -8.926815e-08
   1.486561e-04    4.026581e+06    5.443860e-01    4.026581e+06    0.000000e+00    1.210002e+05   -1.177188e+02   -2.697893e+00    5.779700e+00   -8.926606e-08
   1.495384e-04    3.990992e+06    7.211688e-01    3.990991e+06    0.000000e+00    1.202858e+05   -1.173715e+02   -3.294687e+00    5.779671e+00   -8.926395e-08
   1.504259e-04    3.955714e+06   -1.730611e+00    3.955716e+06    0.000000e+00    1.195756e+05   -1.170252e+02    1.517780e+00    5.779642e+00   -8.926183e-08
   1.513187e-04    3.920751e+06   -1.046559e+00    3.920752e+06    0.000000e+00    1.188697e+05   -1.166799e+02    1.517780e+00    5.779612e+00   -8.925969e-08
   1.522167e-04    3.886099e+06    8.005060e-01    3.886098e+06    0.000000e+00    1.181678e+05   -1.163357e+02   -3.547676e+00    5.779582e+00   -8.925755e-08
   1.531201e-04    3.851750e+06    6.475203e-02    3.851750e+06    0.000000e+00    1.174702e+05   -1.159925e+02   -5.983498e-01    5.779553e+00   -8.925539e-08
   1.540289e-04    3.817702e+06   -3.197406e+00    3.817705e+06    0.000000e+00    1.167766e+05   -1.156503e+02    1.517780e+00    5.779522e+00   -8.925321e-08
   1.549430e-04    3.783961e+06   -1.622136e-01    3.783961e+06    0.000000e+00    1.160871e+05   -1.153091e+02    1.517780e+00    5.779492e+00   -8.925103e-08
   1.558626e-04    3.750516e+06    7.272208e-01    3.750515e+06    0.000000e+00    1.154017e+05   -1.149690e+02   -3.314344e+00    5.779462e+00   -8.924883e-08
   1.567877e-04    3.717364e+06   -8.647523e-01    3.717365e+06    0.000000e+00    1.147204e+05   -1.146298e+02    1.517780e+00    5.779431e+00   -8.924662e-08
   1.577182e-04    3.684505e+06   -2.095452e+00    3.684507e+06    0.000000e+00    1.140430e+05   -1.142916e+02    1.517780e+00    5.779400e+00   -8.924440e-08
   1.586542e-04    3.651941e+06    3.534001e-01    3.651940e+06    0.000000e+00    1.133697e+05   -1.139544e+02   -1.982990e+00    5.779369e+00   -8.924216e-08
   1.595958e-04    3.619661e+06    3.495268e-01    3.619661e+06    0.000000e+00    1.127003e+05   -1.136182e+02   -1.967408e+00    5.779338e+00   -8.923991e-08
   1.605430e-04    3.587665e+06   -2.032290e+00    3.587667e+06    0.000000e+00    1.120349e+05   -1.132830e+02    1.517780e+00    5.779307e+00   -8.923765e-08
   1.614958e-04    3.555955e+06   -9.864568e-01    3.555956e+06    0.000000e+00    1.113734e+05   -1.129488e+02    1.517780e+00    5.779275e+00   -8.923537e-08
   1.624543e-04    3.524525e+06    5.275872e-01    3.524524e+06    0.000000e+00    1.107158e+05   -1.126156e+02   -2.638373e+00    5.779243e+00   -8.923308e-08
   1.634185e-04    3.493371e+06   -2.969608e-01    3.493371e+06    0.000000e+00    1.100621e+05   -1.122834e+02    1.517780e+00    5.779212e+00   -8.923077e-08
   1.643883e-04    3.462490e+06   -3.214718e+00    3.462493e+06    0.000000e+00    1.094122e+05   -1.119521e+02    1.517780e+00    5.779179e+00   -8.922846e-08
   1.653640e-04    3.431887e+06   -2.441937e-01    3.431888e+06    0.000000e+00    1.087662e+05   -1.116219e+02    1.517780e+00    5.779147e+00   -8.922613e-08
   1.663454e-04    3.401553e+06    4.080441e-01    3.401553e+06    0.000000e+00    1.081240e+05   -1.112926e+02   -2.197051e+00    5.779115e+00   -8.922378e-08
   1.673327e-04    3.371485e+06   -1.184842e+00    3.371486e+06    0.000000e+00    1.074856e+05   -1.109643e+02    1.517780e+00    5.779082e+00   -8.922142e-08
   1.683258e-04    3.341683e+06   -1.909731e+00    3.341685e+06    0.000000e+00    1.068509e+05   -1.106369e+02    1.517780e+00    5.779049e+00   -8.921905e-08
   1.693248e-04    3.312147e+06    1.666050e-01    3.312147e+06    0.000000e+00    1.062200e+05   -1.103105e+02   -1.160184e+00    5.779016e+00   -8.921666e-08
   1.703297e-04    3.282870e+06    1.963989e-02    3.282870e+06    0.000000e+00    1.055929e+05   -1.099851e+02   -2.788815e-01    5.778983e+00   -8.921426e-08
   1.713406e-04    3.253850e+06   -2.283640e+00    3.253852e+06    0.000000e+00    1.049694e+05   -1.096606e+02    1.517780e+00    5.778949e+00   -8.921184e-08
   1.723575e-04    3.225089e+06   -9.613953e-01    3.225090e+06    0.000000e+00    1.043496e+05   -1.093371e+02    1.517780e+00    5.778916e+00   -8.920941e-08
   1.733804e-04    3.196583e+06    2.787220e-01    3.196583e+06    0.000000e+00    1.037334e+05   -1.090146e+02   -1.674059e+00    5.778882e+00   -8.920697e-08
   1.744094e-04    3.168326e+06   -6.146498e-01    3.168327e+06    0.000000e+00    1.031209e+05   -1.086930e+02    1.517780e+00    5.778848e+00   -8.920451e-08
   1.754445e-04    3.140318e+06   -2.898391e+00    3.140321e+06    0.000000e+00    1.025120e+05   -1.083723e+02    1.517780e+00    5.778813e+00   -8.920204e-08
   1.764858e-04    3.112562e+06   -3.405190e-01    3.112562e+06    0.000000e+00    1.019067e+05   -1.080526e+02    1.517780e+00    5.778779e+00   -8.919955e-08
   1.775332e-04    3.085049e+06    1.227592e-01    3.085049e+06    0.000000e+00    1.013049e+05   -1.077338e+02   -9.344718e-01    5.778744e+00   -8.919705e-08
   1.785869e-04    3.057778e+06   -1.455357e+00    3.057779e+06    0.000000e+00    1.007068e+05   -1.074160e+02    1.517780e+00    5.778709e+00   -8.919453e-08
   1.796468e-04    3.030748e+06   -1.762454e+00    3.030750e+06    0.000000e+00    1.001121e+05   -1.070991e+02    1.517780e+00    5.778674e+00   -8.919200e-08
   1.807130e-04    3.003960e+06   -1.283311e-02    3.003960e+06    0.000000e+00    9.952095e+04   -1.067832e+02    1.517780e+00    5.778639e+00   -8.918945e-08
   1.817855e-04    2.977406e+06   -2.728440e-01    2.977406e+06    0.000000e+00    9.893329e+04   -1.064682e+02    1.517780e+00    5.778603e+00   -8.918689e-08
   1.828644e-04    2.951084e+06   -2.485504e+00    2.951087e+06    0.000000e+00    9.834909e+04   -1.061540e+02    1.517780e+00    5.778568e+00   -8.918431e-08
   1.839497e-04    2.925000e+06   -9.535407e-01    2.925001e+06    0.000000e+00    9.776834e+04   -1.058409e+02    1.517780e+00    5.778532e+00   -8.918172e-08
   1.850414e-04    2.899145e+06    4.552757e-02    2.899145e+06    0.000000e+00    9.719102e+04   -1.055287e+02   -4.717088e-01    5.778496e+00   -8.917911e-08
   1.861396e-04    2.873516e+06   -8.816377e-01    2.873517e+06    0.000000e+00    9.661711e+04   -1.052173e+02    1.517780e+00    5.778459e+00   -8.917649e-08
   1.872443e-04    2.848114e+06   -2.634613e+00    2.848116e+06    0.000000e+00    9.604658e+04   -1.049069e+02    1.517780e+00    5.778423e+00   -8.917385e-08
   1.883556e-04    2.822939e+06   -4.368594e-01    2.822940e+06    0.000000e+00    9.547941e+04   -1.045975e+02    1.517780e+00    5.778386e+00   -8.917119e-08
   1.894735e-04    2.797985e+06   -1.349288e-01    2.797986e+06    0.000000e+00    9.491560e+04   -1.042889e+02    1.517780e+00    5.778349e+00   -8.916852e-08
   1.905980e-04    2.773250e+06   -1.679555e+00    2.773252e+06    0.000000e+00    9.435511e+04   -1.039812e+02    1.517780e+00    5.778312e+00   -8.916584e-08
   1.917292e-04    2.748735e+06   -1.656008e+00    2.748737e+06    0.000000e+00    9.379792e+04   -1.036745e+02    1.517780e+00    5.778274e+00   -8.916314e-08
   1.928671e-04    2.724438e+06   -1.840243e-01    2.724439e+06    0.000000e+00    9.324403e+04   -1.033687e+02    1.517780e+00    5.778237e+00   -8.916042e-08
   1.940117e-04    2.700354e+06   -5.284916e-01    2.700355e+06    0.000000e+00    9.269340e+04   -1.030637e+02    1.517780e+00    5.778199e+00   -8.915768e-08
   1.951632e-04    2.676481e+06   -2.646113e+00    2.676484e+06    0.000000e+00    9.214602e+04   -1.027596e+02    1.517780e+00    5.778161e+00   -8.915493e-08
   1.963215e-04    2.652823e+06   -9.656903e-01    2.652824e+06    0.000000e+00    9.160187e+04   -1.024565e+02    1.517780e+00    5.778122e+00   -8.915217e-08
   1.974866e-04    2.629373e+06   -1.684219e-01    2.629373e+06    0.000000e+00    9.106093e+04   -1.021543e+02    1.517780e+00    5.778084e+00   -8.914938e-08
   1.986587e-04    2.606128e+06   -1.111604e+00    2.606129e+06    0.000000e+00    9.052318e+04   -1.018529e+02    1.517780e+00    5.778045e+00   -8.914659e-08
   1.998377e-04    2.583089e+06   -2.425500e+00    2.583091e+06    0.000000e+00    8.998861e+04   -1.015524e+02    1.517780e+00    5.778006e+00   -8.914377e-08
   2.010238e-04    2.560256e+06   -5.350579e-01    2.560256e+06    0.000000e+00    8.945719e+04   -1.012529e+02    1.517780e+00    5.777967e+00   -8.914094e-08
   2.022168e-04    2.537623e+06   -3.633971e-01    2.537624e+06    0.000000e+00    8.892890e+04   -1.009542e+02    1.517780e+00    5.777927e+00   -8.913809e-08
   2.034170e-04    2.515189e+06   -1.862010e+00    2.515191e+06    0.000000e+00    8.840373e+04   -1.006563e+02    1.517780e+00    5.777887e+00   -8.913522e-08
   2.046242e-04    2.492954e+06   -1.581603e+00    2.492956e+06    0.000000e+00    8.788166e+04   -1.003594e+02    1.517780e+00    5.777847e+00   -8.913234e-08
