# All units in Hartree [AU] if not specified
# Convergence: Err(φ)=3.890e-11, Err(n_e)=9.015e-11, Err(IET)=9.231e+03, Q_net=2.837e-07
# {"name":"Ar", "Z":18, "Zstar":0.32048902293287895, "A":39.948,  "μ[AU]": -7.3588727753e-02, "Te[AU]": 2.378e-02, "Ti[AU]": 2.378e-02, "rs[AU]": 1.372e+01 }
   r[AU]           n[AU]           nf[AU]          nb[AU]          n_ion[AU]       φtot[AU]        δVxc/δρ[Au]     U_ei[AU]        U_ii[AU]        g_ii            
   1.000000e-04    7.298699e+06    1.319133e+00    7.298698e+06    0.000000e+00    1.799153e+05   -1.434897e+02   -5.028698e+00    4.173035e+00   -2.418155e-01
   1.005935e-04    7.234201e+06    4.762161e+00    7.234196e+06    0.000000e+00    1.788533e+05   -1.430664e+02   -1.237384e+01    4.173021e+00   -2.418116e-01
   1.011905e-04    7.170267e+06    3.060762e+00    7.170264e+06    0.000000e+00    1.777976e+05   -1.426442e+02   -9.090988e+00    4.173007e+00   -2.418077e-01
   1.017911e-04    7.106894e+06   -2.785095e+00    7.106897e+06    0.000000e+00    1.767481e+05   -1.422233e+02    1.303206e+00    4.172992e+00   -2.418039e-01
   1.023952e-04    7.044093e+06    3.337182e+00    7.044090e+06    0.000000e+00    1.757048e+05   -1.418037e+02   -9.657508e+00    4.172978e+00   -2.417999e-01
   1.030029e-04    6.981842e+06    4.400013e+00    6.981837e+06    0.000000e+00    1.746677e+05   -1.413854e+02   -1.171145e+01    4.172963e+00   -2.417960e-01
   1.036142e-04    6.920136e+06    5.374004e-01    6.920135e+06    0.000000e+00    1.736366e+05   -1.409682e+02   -2.652850e+00    4.172949e+00   -2.417921e-01
   1.042292e-04    6.858979e+06    5.383721e-01    6.858978e+06    0.000000e+00    1.726117e+05   -1.405523e+02   -2.656267e+00    4.172934e+00   -2.417881e-01
   1.048478e-04    6.798366e+06    4.218327e+00    6.798362e+06    0.000000e+00    1.715928e+05   -1.401376e+02   -1.137198e+01    4.172919e+00   -2.417841e-01
   1.054700e-04    6.738284e+06    3.070728e+00    6.738281e+06    0.000000e+00    1.705799e+05   -1.397241e+02   -9.111583e+00    4.172904e+00   -2.417801e-01
   1.060960e-04    6.678728e+06   -2.776113e+00    6.678731e+06    0.000000e+00    1.695730e+05   -1.393118e+02    1.303206e+00    4.172889e+00   -2.417760e-01
   1.067257e-04    6.619709e+06    2.647369e+00    6.619707e+06    0.000000e+00    1.685720e+05   -1.389008e+02   -8.212348e+00    4.172874e+00   -2.417719e-01
   1.073591e-04    6.561208e+06    4.083390e+00    6.561204e+06    0.000000e+00    1.675770e+05   -1.384910e+02   -1.111738e+01    4.172859e+00   -2.417678e-01
   1.079962e-04    6.503220e+06    8.857639e-01    6.503219e+06    0.000000e+00    1.665878e+05   -1.380824e+02   -3.790688e+00    4.172844e+00   -2.417637e-01
   1.086372e-04    6.445745e+06   -2.022153e-01    6.445746e+06    0.000000e+00    1.656044e+05   -1.376750e+02    1.303206e+00    4.172828e+00   -2.417596e-01
   1.092819e-04    6.388784e+06    3.687778e+00    6.388780e+06    0.000000e+00    1.646269e+05   -1.372688e+02   -1.035515e+01    4.172813e+00   -2.417554e-01
   1.099305e-04    6.332321e+06    3.018181e+00    6.332318e+06    0.000000e+00    1.636551e+05   -1.368638e+02   -9.002215e+00    4.172797e+00   -2.417512e-01
   1.105830e-04    6.276353e+06   -2.062451e+00    6.276355e+06    0.000000e+00    1.626891e+05   -1.364599e+02    1.303206e+00    4.172782e+00   -2.417470e-01
   1.112393e-04    6.220889e+06    1.993018e+00    6.220887e+06    0.000000e+00    1.617287e+05   -1.360574e+02   -6.728151e+00    4.172766e+00   -2.417427e-01
   1.118995e-04    6.165912e+06    3.745817e+00    6.165908e+06    0.000000e+00    1.607740e+05   -1.356559e+02   -1.046837e+01    4.172750e+00   -2.417384e-01
   1.125636e-04    6.111416e+06    1.144901e+00    6.111415e+06    0.000000e+00    1.598250e+05   -1.352557e+02   -4.548438e+00    4.172734e+00   -2.417342e-01
   1.132316e-04    6.057403e+06   -8.998529e-01    6.057404e+06    0.000000e+00    1.588815e+05   -1.348566e+02    1.303206e+00    4.172718e+00   -2.417298e-01
   1.139037e-04    6.003873e+06    3.157004e+00    6.003870e+06    0.000000e+00    1.579436e+05   -1.344588e+02   -9.289972e+00    4.172702e+00   -2.417255e-01
   1.145797e-04    5.950812e+06    2.923255e+00    5.950809e+06    0.000000e+00    1.570113e+05   -1.340621e+02   -8.803106e+00    4.172686e+00   -2.417211e-01
   1.152597e-04    5.898216e+06   -1.463485e+00    5.898217e+06    0.000000e+00    1.560844e+05   -1.336665e+02    1.303206e+00    4.172670e+00   -2.417167e-01
   1.159437e-04    5.846091e+06    1.357571e+00    5.846090e+06    0.000000e+00    1.551630e+05   -1.332721e+02   -5.131939e+00    4.172653e+00   -2.417123e-01
   1.166319e-04    5.794426e+06    3.392812e+00    5.794423e+06    0.000000e+00    1.542471e+05   -1.328790e+02   -9.769177e+00    4.172637e+00   -2.417078e-01
   1.173241e-04    5.743214e+06    1.329421e+00    5.743213e+06    0.000000e+00    1.533365e+05   -1.324869e+02   -5.056266e+00    4.172620e+00   -2.417034e-01
   1.180204e-04    5.692453e+06   -1.557844e+00    5.692455e+06    0.000000e+00    1.524314e+05   -1.320960e+02    1.303206e+00    4.172603e+00   -2.416988e-01
   1.187208e-04    5.642148e+06    2.629922e+00    5.642146e+06    0.000000e+00    1.515315e+05   -1.317063e+02   -8.174696e+00    4.172587e+00   -2.416943e-01
   1.194254e-04    5.592284e+06    2.794569e+00    5.592281e+06    0.000000e+00    1.506370e+05   -1.313177e+02   -8.530039e+00    4.172570e+00   -2.416898e-01
   1.201342e-04    5.542856e+06   -9.666005e-01    5.542857e+06    0.000000e+00    1.497478e+05   -1.309303e+02    1.303206e+00    4.172553e+00   -2.416852e-01
   1.208472e-04    5.493870e+06    7.414271e-01    5.493869e+06    0.000000e+00    1.488638e+05   -1.305440e+02   -3.339562e+00    4.172536e+00   -2.416806e-01
   1.215644e-04    5.445318e+06    3.028995e+00    5.445315e+06    0.000000e+00    1.479850e+05   -1.301588e+02   -9.024881e+00    4.172518e+00   -2.416759e-01
   1.222859e-04    5.397190e+06    1.450324e+00    5.397189e+06    0.000000e+00    1.471114e+05   -1.297748e+02   -5.377386e+00    4.172501e+00   -2.416713e-01
   1.230117e-04    5.349486e+06   -2.176191e+00    5.349489e+06    0.000000e+00    1.462429e+05   -1.293919e+02    1.303206e+00    4.172484e+00   -2.416666e-01
   1.237417e-04    5.302212e+06    2.124452e+00    5.302210e+06    0.000000e+00    1.453796e+05   -1.290102e+02   -7.037140e+00    4.172466e+00   -2.416618e-01
   1.244761e-04    5.255351e+06    2.628158e+00    5.255349e+06    0.000000e+00    1.445214e+05   -1.286296e+02   -8.170875e+00    4.172449e+00   -2.416571e-01
   1.252149e-04    5.208901e+06   -5.581121e-01    5.208902e+06    0.000000e+00    1.436682e+05   -1.282501e+02    1.303206e+00    4.172431e+00   -2.416523e-01
   1.259580e-04    5.162865e+06    1.626413e-01    5.162865e+06    0.000000e+00    1.428201e+05   -1.278717e+02   -1.120209e+00    4.172413e+00   -2.416475e-01
   1.267056e-04    5.117238e+06    2.658423e+00    5.117235e+06    0.000000e+00    1.419770e+05   -1.274944e+02   -8.236594e+00    4.172395e+00   -2.416427e-01
   1.274576e-04    5.072010e+06    1.516189e+00    5.072008e+06    0.000000e+00    1.411388e+05   -1.271183e+02   -5.548585e+00    4.172377e+00   -2.416378e-01
   1.282140e-04    5.027179e+06   -2.755598e+00    5.027181e+06    0.000000e+00    1.403056e+05   -1.267432e+02    1.303206e+00    4.172359e+00   -2.416329e-01
   1.289750e-04    4.982752e+06    1.627023e+00    4.982750e+06    0.000000e+00    1.394773e+05   -1.263693e+02   -5.832119e+00    4.172341e+00   -2.416280e-01
   1.297404e-04    4.938714e+06    2.435571e+00    4.938712e+06    0.000000e+00    1.386539e+05   -1.259965e+02   -7.746323e+00    4.172323e+00   -2.416230e-01
   1.305104e-04    4.895063e+06   -2.366289e-01    4.895063e+06    0.000000e+00    1.378354e+05   -1.256248e+02    1.303206e+00    4.172304e+00   -2.416180e-01
   1.312850e-04    4.851799e+06   -3.848907e-01    4.851799e+06    0.000000e+00    1.370217e+05   -1.252541e+02    1.303206e+00    4.172286e+00   -2.416130e-01
   1.320642e-04    4.808920e+06    2.280831e+00    4.808918e+06    0.000000e+00    1.362127e+05   -1.248846e+02   -7.397407e+00    4.172267e+00   -2.416080e-01
   1.328480e-04    4.766417e+06    1.534608e+00    4.766416e+06    0.000000e+00    1.354086e+05   -1.245162e+02   -5.596329e+00    4.172248e+00   -2.416029e-01
   1.336364e-04    4.724286e+06   -2.537855e+00    4.724289e+06    0.000000e+00    1.346092e+05   -1.241488e+02    1.303206e+00    4.172229e+00   -2.415978e-01
   1.344295e-04    4.682535e+06    1.142890e+00    4.682534e+06    0.000000e+00    1.338145e+05   -1.237825e+02   -4.542712e+00    4.172210e+00   -2.415927e-01
   1.352274e-04    4.641151e+06    2.221637e+00    4.641148e+06    0.000000e+00    1.330245e+05   -1.234174e+02   -7.262148e+00    4.172191e+00   -2.415875e-01
   1.360299e-04    4.600128e+06    2.223092e-02    4.600128e+06    0.000000e+00    1.322392e+05   -1.230532e+02   -2.798170e-01    4.172172e+00   -2.415823e-01
   1.368372e-04    4.559470e+06   -9.089810e-01    4.559471e+06    0.000000e+00    1.314585e+05   -1.226902e+02    1.303206e+00    4.172152e+00   -2.415771e-01
   1.376494e-04    4.519175e+06    1.911044e+00    4.519173e+06    0.000000e+00    1.306824e+05   -1.223282e+02   -6.532416e+00    4.172133e+00   -2.415719e-01
   1.384663e-04    4.479232e+06    1.507872e+00    4.479230e+06    0.000000e+00    1.299109e+05   -1.219673e+02   -5.527067e+00    4.172113e+00   -2.415666e-01
   1.392881e-04    4.439639e+06   -2.013921e+00    4.439641e+06    0.000000e+00    1.291439e+05   -1.216075e+02    1.303206e+00    4.172094e+00   -2.415613e-01
   1.401148e-04    4.400402e+06    6.736886e-01    4.400402e+06    0.000000e+00    1.283815e+05   -1.212487e+02   -3.118756e+00    4.172074e+00   -2.415559e-01
   1.409463e-04    4.361511e+06    1.991109e+00    4.361509e+06    0.000000e+00    1.276235e+05   -1.208910e+02   -6.723652e+00    4.172054e+00   -2.415505e-01
   1.417828e-04    4.322960e+06    2.197878e-01    4.322960e+06    0.000000e+00    1.268701e+05   -1.205344e+02   -1.392717e+00    4.172034e+00   -2.415451e-01
   1.426243e-04    4.284750e+06   -1.405259e+00    4.284751e+06    0.000000e+00    1.261211e+05   -1.201787e+02    1.303206e+00    4.172014e+00   -2.415397e-01
   1.434708e-04    4.246882e+06    1.539995e+00    4.246881e+06    0.000000e+00    1.253765e+05   -1.198242e+02   -5.610182e+00    4.171993e+00   -2.415342e-01
   1.443223e-04    4.209346e+06    1.455353e+00    4.209344e+06    0.000000e+00    1.246362e+05   -1.194707e+02   -5.390490e+00    4.171973e+00   -2.415287e-01
   1.451788e-04    4.172138e+06   -1.573473e+00    4.172140e+06    0.000000e+00    1.239004e+05   -1.191182e+02    1.303206e+00    4.171953e+00   -2.415232e-01
   1.460404e-04    4.135264e+06    2.295402e-01    4.135264e+06    0.000000e+00    1.231689e+05   -1.187668e+02   -1.437221e+00    4.171932e+00   -2.415176e-01
   1.469072e-04    4.098716e+06    1.748140e+00    4.098714e+06    0.000000e+00    1.224417e+05   -1.184164e+02   -6.135003e+00    4.171911e+00   -2.415120e-01
   1.477791e-04    4.062487e+06    3.676814e-01    4.062487e+06    0.000000e+00    1.217188e+05   -1.180671e+02   -2.019466e+00    4.171890e+00   -2.415064e-01
   1.486561e-04    4.026578e+06   -1.873595e+00    4.026580e+06    0.000000e+00    1.210002e+05   -1.177187e+02    1.303206e+00    4.171869e+00   -2.415007e-01
   1.495384e-04    3.990992e+06    1.173790e+00    3.990990e+06    0.000000e+00    1.202858e+05   -1.173715e+02   -4.629563e+00    4.171848e+00   -2.414950e-01
   1.504259e-04    3.955717e+06    1.369206e+00    3.955715e+06    0.000000e+00    1.195756e+05   -1.170252e+02   -5.162886e+00    4.171827e+00   -2.414892e-01
   1.513187e-04    3.920751e+06   -1.206872e+00    3.920752e+06    0.000000e+00    1.188696e+05   -1.166799e+02    1.303206e+00    4.171805e+00   -2.414835e-01
   1.522167e-04    3.886097e+06   -2.012541e-01    3.886097e+06    0.000000e+00    1.181678e+05   -1.163357e+02    1.303206e+00    4.171784e+00   -2.414777e-01
   1.531201e-04    3.851750e+06    1.495814e+00    3.851749e+06    0.000000e+00    1.174701e+05   -1.159925e+02   -5.496008e+00    4.171762e+00   -2.414718e-01
   1.540289e-04    3.817705e+06    4.612844e-01    3.817704e+06    0.000000e+00    1.167766e+05   -1.156503e+02   -2.377346e+00    4.171740e+00   -2.414659e-01
   1.549430e-04    3.783958e+06   -2.314327e+00    3.783960e+06    0.000000e+00    1.160871e+05   -1.153091e+02    1.303206e+00    4.171719e+00   -2.414600e-01
   1.558626e-04    3.750515e+06    8.127446e-01    3.750514e+06    0.000000e+00    1.154017e+05   -1.149690e+02   -3.565412e+00    4.171697e+00   -2.414541e-01
   1.567877e-04    3.717365e+06    1.258635e+00    3.717364e+06    0.000000e+00    1.147204e+05   -1.146298e+02   -4.864171e+00    4.171674e+00   -2.414481e-01
   1.577182e-04    3.684506e+06   -9.105154e-01    3.684507e+06    0.000000e+00    1.140430e+05   -1.142916e+02    1.303206e+00    4.171652e+00   -2.414421e-01
   1.586542e-04    3.651939e+06   -6.133516e-01    3.651940e+06    0.000000e+00    1.133697e+05   -1.139544e+02    1.303206e+00    4.171630e+00   -2.414360e-01
   1.595958e-04    3.619662e+06    1.234642e+00    3.619660e+06    0.000000e+00    1.127003e+05   -1.136183e+02   -4.798506e+00    4.171607e+00   -2.414300e-01
   1.605430e-04    3.587667e+06    5.171513e-01    3.587666e+06    0.000000e+00    1.120349e+05   -1.132831e+02   -2.580803e+00    4.171584e+00   -2.414238e-01
   1.614958e-04    3.555952e+06   -2.690913e+00    3.555955e+06    0.000000e+00    1.113734e+05   -1.129488e+02    1.303206e+00    4.171562e+00   -2.414177e-01
   1.624543e-04    3.524524e+06    4.595624e-01    3.524524e+06    0.000000e+00    1.107158e+05   -1.126156e+02   -2.371008e+00    4.171539e+00   -2.414115e-01
   1.634185e-04    3.493372e+06    1.128016e+00    3.493370e+06    0.000000e+00    1.100621e+05   -1.122834e+02   -4.500974e+00    4.171515e+00   -2.414052e-01
   1.643883e-04    3.462492e+06   -6.630019e-01    3.462492e+06    0.000000e+00    1.094122e+05   -1.119521e+02    1.303206e+00    4.171492e+00   -2.413990e-01
   1.653640e-04    3.431886e+06   -1.006499e+00    3.431887e+06    0.000000e+00    1.087662e+05   -1.116219e+02    1.303206e+00    4.171469e+00   -2.413927e-01
   1.663454e-04    3.401553e+06    9.758960e-01    3.401552e+06    0.000000e+00    1.081240e+05   -1.112926e+02   -4.060981e+00    4.171445e+00   -2.413863e-01
   1.673327e-04    3.371486e+06    5.411342e-01    3.371485e+06    0.000000e+00    1.074856e+05   -1.109643e+02   -2.665944e+00    4.171422e+00   -2.413799e-01
   1.683258e-04    3.341682e+06   -2.247046e+00    3.341684e+06    0.000000e+00    1.068509e+05   -1.106369e+02    1.303206e+00    4.171398e+00   -2.413735e-01
   1.693248e-04    3.312146e+06    1.204192e-01    3.312146e+06    0.000000e+00    1.062200e+05   -1.103105e+02   -9.015554e-01    4.171374e+00   -2.413671e-01
   1.703297e-04    3.282870e+06    9.810143e-01    3.282869e+06    0.000000e+00    1.055928e+05   -1.099851e+02   -4.076127e+00    4.171350e+00   -2.413606e-01
   1.713406e-04    3.253851e+06   -4.752228e-01    3.253851e+06    0.000000e+00    1.049694e+05   -1.096606e+02    1.303206e+00    4.171326e+00   -2.413540e-01
   1.723575e-04    3.225088e+06   -1.380511e+00    3.225090e+06    0.000000e+00    1.043495e+05   -1.093371e+02    1.303206e+00    4.171301e+00   -2.413475e-01
   1.733804e-04    3.196583e+06    7.102266e-01    3.196582e+06    0.000000e+00    1.037334e+05   -1.090146e+02   -3.238801e+00    4.171277e+00   -2.413408e-01
   1.744094e-04    3.168327e+06    5.296263e-01    3.168326e+06    0.000000e+00    1.031209e+05   -1.086930e+02   -2.625284e+00    4.171252e+00   -2.413342e-01
   1.754445e-04    3.140319e+06   -1.862078e+00    3.140320e+06    0.000000e+00    1.025120e+05   -1.083723e+02    1.303206e+00    4.171227e+00   -2.413275e-01
   1.764858e-04    3.112562e+06   -2.137786e-01    3.112562e+06    0.000000e+00    1.019067e+05   -1.080526e+02    1.303206e+00    4.171202e+00   -2.413208e-01
   1.775332e-04    3.085049e+06    8.210079e-01    3.085049e+06    0.000000e+00    1.013049e+05   -1.077338e+02   -3.591360e+00    4.171177e+00   -2.413140e-01
   1.785869e-04    3.057778e+06   -3.259292e-01    3.057778e+06    0.000000e+00    1.007067e+05   -1.074160e+02    1.303206e+00    4.171152e+00   -2.413072e-01
   1.796468e-04    3.030748e+06   -1.735537e+00    3.030749e+06    0.000000e+00    1.001121e+05   -1.070991e+02    1.303206e+00    4.171127e+00   -2.413003e-01
   1.807130e-04    3.003959e+06    4.509495e-01    3.003959e+06    0.000000e+00    9.952093e+04   -1.067832e+02   -2.338932e+00    4.171101e+00   -2.412934e-01
   1.817855e-04    2.977406e+06    4.910001e-01    2.977405e+06    0.000000e+00    9.893327e+04   -1.064682e+02   -2.486372e+00    4.171075e+00   -2.412865e-01
   1.828644e-04    2.951085e+06   -1.542257e+00    2.951086e+06    0.000000e+00    9.834908e+04   -1.061540e+02    1.303206e+00    4.171049e+00   -2.412795e-01
   1.839497e-04    2.924999e+06   -5.296936e-01    2.925000e+06    0.000000e+00    9.776833e+04   -1.058409e+02    1.303206e+00    4.171023e+00   -2.412725e-01
   1.850414e-04    2.899145e+06    6.508698e-01    2.899144e+06    0.000000e+00    9.719101e+04   -1.055287e+02   -3.042893e+00    4.170997e+00   -2.412655e-01
   1.861396e-04    2.873516e+06   -2.180644e-01    2.873517e+06    0.000000e+00    9.661709e+04   -1.052173e+02    1.303206e+00    4.170971e+00   -2.412584e-01
   1.872443e-04    2.848114e+06   -2.071003e+00    2.848116e+06    0.000000e+00    9.604656e+04   -1.049069e+02    1.303206e+00    4.170944e+00   -2.412512e-01
   1.883556e-04    2.822939e+06    1.914248e-01    2.822939e+06    0.000000e+00    9.547940e+04   -1.045975e+02   -1.260342e+00    4.170918e+00   -2.412441e-01
   1.894735e-04    2.797985e+06    4.374348e-01    2.797985e+06    0.000000e+00    9.491558e+04   -1.042889e+02   -2.288336e+00    4.170891e+00   -2.412368e-01
   1.905980e-04    2.773250e+06   -1.279413e+00    2.773251e+06    0.000000e+00    9.435509e+04   -1.039812e+02    1.303206e+00    4.170864e+00   -2.412296e-01
   1.917292e-04    2.748736e+06   -8.363444e-01    2.748736e+06    0.000000e+00    9.379791e+04   -1.036745e+02    1.303206e+00    4.170837e+00   -2.412223e-01
   1.928671e-04    2.724438e+06    4.732855e-01    2.724438e+06    0.000000e+00    9.324401e+04   -1.033687e+02   -2.421677e+00    4.170810e+00   -2.412149e-01
   1.940117e-04    2.700354e+06   -1.457134e-01    2.700354e+06    0.000000e+00    9.269339e+04   -1.030637e+02    1.303206e+00    4.170782e+00   -2.412075e-01
   1.951632e-04    2.676481e+06   -2.387723e+00    2.676483e+06    0.000000e+00    9.214601e+04   -1.027596e+02    1.303206e+00    4.170755e+00   -2.412001e-01
   1.963215e-04    2.652823e+06   -6.416820e-02    2.652823e+06    0.000000e+00    9.160186e+04   -1.024565e+02    1.303206e+00    4.170727e+00   -2.411926e-01
   1.974866e-04    2.629373e+06    3.596266e-01    2.629373e+06    0.000000e+00    9.106092e+04   -1.021543e+02   -1.987432e+00    4.170699e+00   -2.411850e-01
   1.986587e-04    2.606128e+06   -1.061098e+00    2.606129e+06    0.000000e+00    9.052317e+04   -1.018529e+02    1.303206e+00    4.170671e+00   -2.411775e-01
   1.998377e-04    2.583090e+06   -1.131174e+00    2.583091e+06    0.000000e+00    8.998860e+04   -1.015524e+02    1.303206e+00    4.170643e+00   -2.411699e-01
   2.010238e-04    2.560256e+06    2.882959e-01    2.560256e+06    0.000000e+00    8.945717e+04   -1.012529e+02   -1.694494e+00    4.170614e+00   -2.411622e-01
   2.022168e-04    2.537623e+06   -1.034693e-01    2.537623e+06    0.000000e+00    8.892889e+04   -1.009542e+02    1.303206e+00    4.170586e+00   -2.411545e-01
   2.034170e-04    2.515188e+06   -2.261634e+00    2.515190e+06    0.000000e+00    8.840372e+04   -1.006563e+02    1.303206e+00    4.170557e+00   -2.411467e-01
   2.046242e-04    2.492955e+06   -3.156754e-01    2.492955e+06    0.000000e+00    8.788165e+04   -1.003594e+02    1.303206e+00    4.170528e+00   -2.411389e-01
