# All units in Hartree [AU] if not specified
# Convergence: Err(φ)=3.965e-11, Err(n_e)=9.455e-11, Err(IET)=9.627e-13, Q_net=2.470e-07
# {"name":"Ar", "Z":18, "Zstar":0.06431433549167309, "A":39.948,  "μ[AU]": -2.8854515154e-02, "Te[AU]": 7.061e-03, "Ti[AU]": 7.061e-03, "rs[AU]": 1.372e+01 }
   r[AU]           n[AU]           nf[AU]          nb[AU]          n_ion[AU]       φtot[AU]        δVxc/δρ[Au]     U_ei[AU]        U_ii[AU]        g_ii            
   1.000000e-04    7.298696e+06    1.332003e+00    7.298695e+06    0.000000e+00    1.799153e+05   -1.434897e+02   -4.981117e+00    1.679638e-01   -4.065746e-02
   1.005935e-04    7.234200e+06    7.516756e+00    7.234193e+06    0.000000e+00    1.788533e+05   -1.430664e+02   -1.690061e+01    1.679632e-01   -4.065681e-02
   1.011905e-04    7.170269e+06    7.975476e+00    7.170261e+06    0.000000e+00    1.777975e+05   -1.426442e+02   -1.761073e+01    1.679626e-01   -4.065615e-02
   1.017911e-04    7.106894e+06    5.754078e-01    7.106894e+06    0.000000e+00    1.767481e+05   -1.422233e+02   -2.703871e+00    1.679621e-01   -4.065549e-02
   1.023952e-04    7.044094e+06    7.575071e+00    7.044086e+06    0.000000e+00    1.757048e+05   -1.418037e+02   -1.699227e+01    1.679615e-01   -4.065483e-02
   1.030029e-04    6.981842e+06    7.532111e+00    6.981834e+06    0.000000e+00    1.746676e+05   -1.413854e+02   -1.692482e+01    1.679609e-01   -4.065416e-02
   1.036142e-04    6.920132e+06    4.609761e-01    6.920132e+06    0.000000e+00    1.736366e+05   -1.409682e+02   -2.294080e+00    1.679603e-01   -4.065349e-02
   1.042292e-04    6.858983e+06    7.604065e+00    6.858975e+06    0.000000e+00    1.726116e+05   -1.405523e+02   -1.703757e+01    1.679598e-01   -4.065281e-02
   1.048478e-04    6.798366e+06    7.079725e+00    6.798358e+06    0.000000e+00    1.715927e+05   -1.401376e+02   -1.621115e+01    1.679592e-01   -4.065213e-02
   1.054700e-04    6.738279e+06    1.123191e+00    6.738277e+06    0.000000e+00    1.705799e+05   -1.397241e+02   -4.404815e+00    1.679586e-01   -4.065145e-02
   1.060960e-04    6.678735e+06    7.587321e+00    6.678727e+06    0.000000e+00    1.695730e+05   -1.393119e+02   -1.701143e+01    1.679580e-01   -4.065076e-02
   1.067257e-04    6.619710e+06    6.627382e+00    6.619703e+06    0.000000e+00    1.685720e+05   -1.389008e+02   -1.548245e+01    1.679574e-01   -4.065007e-02
   1.073591e-04    6.561203e+06    1.692988e+00    6.561201e+06    0.000000e+00    1.675769e+05   -1.384910e+02   -5.915513e+00    1.679568e-01   -4.064937e-02
   1.079962e-04    6.503223e+06    7.542866e+00    6.503215e+06    0.000000e+00    1.665877e+05   -1.380824e+02   -1.694174e+01    1.679562e-01   -4.064867e-02
   1.086372e-04    6.445748e+06    6.146450e+00    6.445742e+06    0.000000e+00    1.656044e+05   -1.376750e+02   -1.469124e+01    1.679556e-01   -4.064796e-02
   1.092819e-04    6.388779e+06    2.211802e+00    6.388777e+06    0.000000e+00    1.646268e+05   -1.372688e+02   -7.157179e+00    1.679550e-01   -4.064726e-02
   1.099305e-04    6.332322e+06    7.451334e+00    6.332315e+06    0.000000e+00    1.636550e+05   -1.368638e+02   -1.679859e+01    1.679543e-01   -4.064654e-02
   1.105830e-04    6.276358e+06    5.665579e+00    6.276352e+06    0.000000e+00    1.626890e+05   -1.364600e+02   -1.387864e+01    1.679537e-01   -4.064583e-02
   1.112393e-04    6.220886e+06    2.666363e+00    6.220883e+06    0.000000e+00    1.617286e+05   -1.360573e+02   -8.171659e+00    1.679531e-01   -4.064510e-02
   1.118995e-04    6.165912e+06    7.339081e+00    6.165905e+06    0.000000e+00    1.607740e+05   -1.356560e+02   -1.662237e+01    1.679525e-01   -4.064438e-02
   1.125636e-04    6.111417e+06    5.170754e+00    6.111412e+06    0.000000e+00    1.598249e+05   -1.352557e+02   -1.302014e+01    1.679518e-01   -4.064365e-02
   1.132316e-04    6.057404e+06    3.075278e+00    6.057401e+06    0.000000e+00    1.588814e+05   -1.348566e+02   -9.038844e+00    1.679512e-01   -4.064291e-02
   1.139037e-04    6.003874e+06    7.204726e+00    6.003867e+06    0.000000e+00    1.579436e+05   -1.344588e+02   -1.641008e+01    1.679506e-01   -4.064218e-02
   1.145797e-04    5.950811e+06    4.684310e+00    5.950806e+06    0.000000e+00    1.570112e+05   -1.340620e+02   -1.215046e+01    1.679499e-01   -4.064143e-02
   1.152597e-04    5.898217e+06    3.451915e+00    5.898214e+06    0.000000e+00    1.560843e+05   -1.336665e+02   -9.805521e+00    1.679493e-01   -4.064068e-02
   1.159437e-04    5.846094e+06    7.059288e+00    5.846087e+06    0.000000e+00    1.551630e+05   -1.332722e+02   -1.617828e+01    1.679486e-01   -4.063993e-02
   1.166319e-04    5.794424e+06    4.203455e+00    5.794420e+06    0.000000e+00    1.542470e+05   -1.328789e+02   -1.126231e+01    1.679480e-01   -4.063918e-02
   1.173241e-04    5.743213e+06    3.763350e+00    5.743210e+06    0.000000e+00    1.533365e+05   -1.324869e+02   -1.042023e+01    1.679473e-01   -4.063842e-02
   1.180204e-04    5.692459e+06    6.871234e+00    5.692452e+06    0.000000e+00    1.524313e+05   -1.320960e+02   -1.587745e+01    1.679467e-01   -4.063765e-02
   1.187208e-04    5.642146e+06    3.694705e+00    5.642142e+06    0.000000e+00    1.515315e+05   -1.317063e+02   -1.028633e+01    1.679460e-01   -4.063688e-02
   1.194254e-04    5.592282e+06    4.017880e+00    5.592278e+06    0.000000e+00    1.506369e+05   -1.313177e+02   -1.091044e+01    1.679453e-01   -4.063611e-02
   1.201342e-04    5.542860e+06    6.668399e+00    5.542854e+06    0.000000e+00    1.497477e+05   -1.309303e+02   -1.554967e+01    1.679447e-01   -4.063533e-02
   1.208472e-04    5.493869e+06    3.200548e+00    5.493866e+06    0.000000e+00    1.488637e+05   -1.305440e+02   -9.297100e+00    1.679440e-01   -4.063454e-02
   1.215644e-04    5.445316e+06    4.246558e+00    5.445312e+06    0.000000e+00    1.479849e+05   -1.301588e+02   -1.134312e+01    1.679433e-01   -4.063375e-02
   1.222859e-04    5.397192e+06    6.456080e+00    5.397186e+06    0.000000e+00    1.471113e+05   -1.297748e+02   -1.520298e+01    1.679426e-01   -4.063296e-02
   1.230117e-04    5.349488e+06    2.708634e+00    5.349486e+06    0.000000e+00    1.462429e+05   -1.293919e+02   -8.263165e+00    1.679419e-01   -4.063216e-02
   1.237417e-04    5.302211e+06    4.444517e+00    5.302207e+06    0.000000e+00    1.453796e+05   -1.290102e+02   -1.171130e+01    1.679412e-01   -4.063136e-02
   1.244761e-04    5.255352e+06    6.227042e+00    5.255346e+06    0.000000e+00    1.445213e+05   -1.286296e+02   -1.482454e+01    1.679405e-01   -4.063055e-02
   1.252149e-04    5.208901e+06    2.230694e+00    5.208899e+06    0.000000e+00    1.436682e+05   -1.282501e+02   -7.200292e+00    1.679398e-01   -4.062974e-02
   1.259580e-04    5.162867e+06    4.599241e+00    5.162862e+06    0.000000e+00    1.428200e+05   -1.278717e+02   -1.199572e+01    1.679391e-01   -4.062893e-02
   1.267056e-04    5.117238e+06    5.980427e+00    5.117232e+06    0.000000e+00    1.419769e+05   -1.274945e+02   -1.441317e+01    1.679384e-01   -4.062810e-02
   1.274576e-04    5.072007e+06    1.735559e+00    5.072005e+06    0.000000e+00    1.411388e+05   -1.271183e+02   -6.021297e+00    1.679377e-01   -4.062728e-02
   1.282140e-04    5.027183e+06    4.725827e+00    5.027178e+06    0.000000e+00    1.403055e+05   -1.267433e+02   -1.222585e+01    1.679370e-01   -4.062645e-02
   1.289750e-04    4.982753e+06    5.721157e+00    4.982747e+06    0.000000e+00    1.394773e+05   -1.263693e+02   -1.397421e+01    1.679363e-01   -4.062561e-02
   1.297404e-04    4.938710e+06    1.250646e+00    4.938709e+06    0.000000e+00    1.386539e+05   -1.259965e+02   -4.760210e+00    1.679355e-01   -4.062477e-02
   1.305104e-04    4.895065e+06    4.806125e+00    4.895060e+06    0.000000e+00    1.378353e+05   -1.256248e+02   -1.237117e+01    1.679348e-01   -4.062392e-02
   1.312850e-04    4.851802e+06    5.446534e+00    4.851796e+06    0.000000e+00    1.370216e+05   -1.252542e+02   -1.350223e+01    1.679341e-01   -4.062307e-02
   1.320642e-04    4.808916e+06    7.636250e-01    4.808915e+06    0.000000e+00    1.362127e+05   -1.248846e+02   -3.328446e+00    1.679333e-01   -4.062222e-02
   1.328480e-04    4.766417e+06    4.866077e+00    4.766413e+06    0.000000e+00    1.354085e+05   -1.245162e+02   -1.247864e+01    1.679326e-01   -4.062135e-02
   1.336364e-04    4.724291e+06    5.164156e+00    4.724286e+06    0.000000e+00    1.346091e+05   -1.241488e+02   -1.300840e+01    1.679318e-01   -4.062049e-02
   1.344295e-04    4.682531e+06    2.886096e-01    4.682531e+06    0.000000e+00    1.338145e+05   -1.237825e+02   -1.613703e+00    1.679311e-01   -4.061962e-02
   1.352274e-04    4.641150e+06    4.910323e+00    4.641146e+06    0.000000e+00    1.330245e+05   -1.234174e+02   -1.255840e+01    1.679303e-01   -4.061874e-02
   1.360299e-04    4.600130e+06    4.884666e+00    4.600126e+06    0.000000e+00    1.322391e+05   -1.230532e+02   -1.251224e+01    1.679296e-01   -4.061786e-02
   1.368372e-04    4.559468e+06    2.199172e-01    4.559468e+06    0.000000e+00    1.314584e+05   -1.226902e+02   -1.311304e+00    1.679288e-01   -4.061697e-02
   1.376494e-04    4.519175e+06    4.922713e+00    4.519170e+06    0.000000e+00    1.306823e+05   -1.223282e+02   -1.258060e+01    1.679280e-01   -4.061608e-02
   1.384663e-04    4.479232e+06    4.591437e+00    4.479228e+06    0.000000e+00    1.299108e+05   -1.219673e+02   -1.198138e+01    1.679272e-01   -4.061518e-02
   1.392881e-04    4.439639e+06    6.351185e-01    4.439638e+06    0.000000e+00    1.291439e+05   -1.216075e+02   -2.907925e+00    1.679265e-01   -4.061428e-02
   1.401148e-04    4.400404e+06    4.899957e+00    4.400399e+06    0.000000e+00    1.283814e+05   -1.212487e+02   -1.253978e+01    1.679257e-01   -4.061337e-02
   1.409463e-04    4.361510e+06    4.279340e+00    4.361506e+06    0.000000e+00    1.276235e+05   -1.208910e+02   -1.140402e+01    1.679249e-01   -4.061246e-02
   1.417828e-04    4.322958e+06    9.973377e-01    4.322957e+06    0.000000e+00    1.268700e+05   -1.205343e+02   -4.041994e+00    1.679241e-01   -4.061154e-02
   1.426243e-04    4.284753e+06    4.866773e+00    4.284749e+06    0.000000e+00    1.261210e+05   -1.201788e+02   -1.247990e+01    1.679233e-01   -4.061061e-02
   1.434708e-04    4.246882e+06    3.973238e+00    4.246878e+06    0.000000e+00    1.253764e+05   -1.198242e+02   -1.082563e+01    1.679225e-01   -4.060968e-02
   1.443223e-04    4.209343e+06    1.333552e+00    4.209342e+06    0.000000e+00    1.246362e+05   -1.194707e+02   -4.985283e+00    1.679217e-01   -4.060875e-02
   1.451788e-04    4.172142e+06    4.820139e+00    4.172137e+06    0.000000e+00    1.239003e+05   -1.191183e+02   -1.239628e+01    1.679209e-01   -4.060780e-02
   1.460404e-04    4.135265e+06    3.664653e+00    4.135261e+06    0.000000e+00    1.231688e+05   -1.187668e+02   -1.022699e+01    1.679200e-01   -4.060686e-02
   1.469072e-04    4.098713e+06    1.639514e+00    4.098711e+06    0.000000e+00    1.224417e+05   -1.184164e+02   -5.781239e+00    1.679192e-01   -4.060591e-02
   1.477791e-04    4.062489e+06    4.749750e+00    4.062484e+06    0.000000e+00    1.217188e+05   -1.180671e+02   -1.226940e+01    1.679184e-01   -4.060495e-02
   1.486561e-04    4.026581e+06    3.360461e+00    4.026577e+06    0.000000e+00    1.210001e+05   -1.177188e+02   -9.622030e+00    1.679176e-01   -4.060398e-02
   1.495384e-04    3.990990e+06    1.905247e+00    3.990988e+06    0.000000e+00    1.202857e+05   -1.173715e+02   -6.435847e+00    1.679167e-01   -4.060301e-02
   1.504259e-04    3.955717e+06    4.666189e+00    3.955713e+06    0.000000e+00    1.195756e+05   -1.170252e+02   -1.211774e+01    1.679159e-01   -4.060204e-02
   1.513187e-04    3.920752e+06    3.041069e+00    3.920749e+06    0.000000e+00    1.188696e+05   -1.166800e+02   -8.967285e+00    1.679150e-01   -4.060106e-02
   1.522167e-04    3.886097e+06    2.139208e+00    3.886095e+06    0.000000e+00    1.181678e+05   -1.163357e+02   -6.989442e+00    1.679142e-01   -4.060007e-02
   1.531201e-04    3.851751e+06    4.558787e+00    3.851746e+06    0.000000e+00    1.174701e+05   -1.159925e+02   -1.192111e+01    1.679133e-01   -4.059908e-02
   1.540289e-04    3.817704e+06    2.724962e+00    3.817701e+06    0.000000e+00    1.167765e+05   -1.156503e+02   -8.298482e+00    1.679125e-01   -4.059808e-02
   1.549430e-04    3.783960e+06    2.338798e+00    3.783957e+06    0.000000e+00    1.160871e+05   -1.153091e+02   -7.446777e+00    1.679116e-01   -4.059708e-02
   1.558626e-04    3.750516e+06    4.444199e+00    3.750512e+06    0.000000e+00    1.154017e+05   -1.149690e+02   -1.171071e+01    1.679107e-01   -4.059607e-02
   1.567877e-04    3.717364e+06    2.403282e+00    3.717361e+06    0.000000e+00    1.147203e+05   -1.146298e+02   -7.591881e+00    1.679098e-01   -4.059505e-02
   1.577182e-04    3.684507e+06    2.514223e+00    3.684504e+06    0.000000e+00    1.140430e+05   -1.142916e+02   -7.838468e+00    1.679090e-01   -4.059403e-02
   1.586542e-04    3.651941e+06    4.314520e+00    3.651937e+06    0.000000e+00    1.133696e+05   -1.139544e+02   -1.147010e+01    1.679081e-01   -4.059300e-02
   1.595958e-04    3.619660e+06    2.088602e+00    3.619658e+06    0.000000e+00    1.127002e+05   -1.136182e+02   -6.871189e+00    1.679072e-01   -4.059197e-02
   1.605430e-04    3.587666e+06    2.674477e+00    3.587664e+06    0.000000e+00    1.120348e+05   -1.132830e+02   -8.189131e+00    1.679063e-01   -4.059093e-02
   1.614958e-04    3.555956e+06    4.184022e+00    3.555952e+06    0.000000e+00    1.113733e+05   -1.129489e+02   -1.122560e+01    1.679054e-01   -4.058988e-02
   1.624543e-04    3.524523e+06    1.781523e+00    3.524521e+06    0.000000e+00    1.107157e+05   -1.126156e+02   -6.134965e+00    1.679045e-01   -4.058883e-02
   1.634185e-04    3.493371e+06    2.798949e+00    3.493368e+06    0.000000e+00    1.100620e+05   -1.122834e+02   -8.457167e+00    1.679035e-01   -4.058777e-02
   1.643883e-04    3.462494e+06    4.031005e+00    3.462490e+06    0.000000e+00    1.094122e+05   -1.119522e+02   -1.093542e+01    1.679026e-01   -4.058670e-02
   1.653640e-04    3.431886e+06    1.467683e+00    3.431884e+06    0.000000e+00    1.087662e+05   -1.116219e+02   -5.340547e+00    1.679017e-01   -4.058563e-02
   1.663454e-04    3.401552e+06    2.892953e+00    3.401549e+06    0.000000e+00    1.081239e+05   -1.112926e+02   -8.657016e+00    1.679008e-01   -4.058455e-02
   1.673327e-04    3.371487e+06    3.872284e+00    3.371483e+06    0.000000e+00    1.074855e+05   -1.109643e+02   -1.063149e+01    1.678998e-01   -4.058347e-02
   1.683258e-04    3.341683e+06    1.147854e+00    3.341682e+06    0.000000e+00    1.068509e+05   -1.106369e+02   -4.474678e+00    1.678989e-01   -4.058238e-02
   1.693248e-04    3.312147e+06    2.974655e+00    3.312144e+06    0.000000e+00    1.062200e+05   -1.103105e+02   -8.828959e+00    1.678979e-01   -4.058128e-02
   1.703297e-04    3.282871e+06    3.710799e+00    3.282867e+06    0.000000e+00    1.055928e+05   -1.099851e+02   -1.031795e+01    1.678970e-01   -4.058018e-02
   1.713406e-04    3.253850e+06    8.399038e-01    3.253849e+06    0.000000e+00    1.049693e+05   -1.096606e+02   -3.567783e+00    1.678960e-01   -4.057907e-02
   1.723575e-04    3.225090e+06    3.044573e+00    3.225087e+06    0.000000e+00    1.043495e+05   -1.093371e+02   -8.974608e+00    1.678951e-01   -4.057795e-02
   1.733804e-04    3.196583e+06    3.541445e+00    3.196580e+06    0.000000e+00    1.037333e+05   -1.090146e+02   -9.984010e+00    1.678941e-01   -4.057683e-02
   1.744094e-04    3.168324e+06    5.434561e-01    3.168324e+06    0.000000e+00    1.031208e+05   -1.086929e+02   -2.592081e+00    1.678931e-01   -4.057570e-02
   1.754445e-04    3.140321e+06    3.084929e+00    3.140318e+06    0.000000e+00    1.025119e+05   -1.083723e+02   -9.058899e+00    1.678921e-01   -4.057456e-02
   1.764858e-04    3.112563e+06    3.364325e+00    3.112559e+06    0.000000e+00    1.019066e+05   -1.080526e+02   -9.629871e+00    1.678911e-01   -4.057342e-02
   1.775332e-04    3.085046e+06    2.378002e-01    3.085046e+06    0.000000e+00    1.013049e+05   -1.077338e+02   -1.392261e+00    1.678901e-01   -4.057227e-02
   1.785869e-04    3.057779e+06    3.111552e+00    3.057776e+06    0.000000e+00    1.007067e+05   -1.074160e+02   -9.113895e+00    1.678891e-01   -4.057111e-02
   1.796468e-04    3.030750e+06    3.180649e+00    3.030747e+06    0.000000e+00    1.001120e+05   -1.070991e+02   -9.256321e+00    1.678881e-01   -4.056995e-02
   1.807130e-04    3.003956e+06   -5.945568e-02    3.003956e+06    0.000000e+00    9.952087e+04   -1.067831e+02    3.461690e-01    1.678871e-01   -4.056878e-02
   1.817855e-04    2.977406e+06    3.119797e+00    2.977403e+06    0.000000e+00    9.893321e+04   -1.064682e+02   -9.130828e+00    1.678861e-01   -4.056760e-02
   1.828644e-04    2.951087e+06    2.995630e+00    2.951084e+06    0.000000e+00    9.834902e+04   -1.061541e+02   -8.872983e+00    1.678851e-01   -4.056641e-02
   1.839497e-04    2.924998e+06    2.038596e-01    2.924997e+06    0.000000e+00    9.776827e+04   -1.058409e+02   -1.236921e+00    1.678840e-01   -4.056522e-02
   1.850414e-04    2.899145e+06    3.114861e+00    2.899142e+06    0.000000e+00    9.719095e+04   -1.055287e+02   -9.120695e+00    1.678830e-01   -4.056402e-02
   1.861396e-04    2.873517e+06    2.801494e+00    2.873514e+06    0.000000e+00    9.661703e+04   -1.052174e+02   -8.462624e+00    1.678820e-01   -4.056282e-02
   1.872443e-04    2.848114e+06    4.518180e-01    2.848113e+06    0.000000e+00    9.604650e+04   -1.049069e+02   -2.260045e+00    1.678809e-01   -4.056160e-02
   1.883556e-04    2.822940e+06    3.106146e+00    2.822937e+06    0.000000e+00    9.547934e+04   -1.045975e+02   -9.102766e+00    1.678799e-01   -4.056038e-02
   1.894735e-04    2.797985e+06    2.613815e+00    2.797983e+06    0.000000e+00    9.491552e+04   -1.042889e+02   -8.057173e+00    1.678788e-01   -4.055916e-02
   1.905980e-04    2.773250e+06    6.829732e-01    2.773249e+06    0.000000e+00    9.435503e+04   -1.039812e+02   -3.067193e+00    1.678777e-01   -4.055792e-02
   1.917292e-04    2.748737e+06    3.075469e+00    2.748734e+06    0.000000e+00    9.379785e+04   -1.036745e+02   -9.039242e+00    1.678767e-01   -4.055668e-02
   1.928671e-04    2.724438e+06    2.420673e+00    2.724436e+06    0.000000e+00    9.324395e+04   -1.033687e+02   -7.630771e+00    1.678756e-01   -4.055543e-02
   1.940117e-04    2.700353e+06    8.825390e-01    2.700352e+06    0.000000e+00    9.269332e+04   -1.030637e+02   -3.698652e+00    1.678745e-01   -4.055417e-02
   1.951632e-04    2.676484e+06    3.028929e+00    2.676481e+06    0.000000e+00    9.214595e+04   -1.027597e+02   -8.942231e+00    1.678734e-01   -4.055291e-02
   1.963215e-04    2.652823e+06    2.217318e+00    2.652821e+06    0.000000e+00    9.160180e+04   -1.024565e+02   -7.169776e+00    1.678723e-01   -4.055164e-02
   1.974866e-04    2.629371e+06    1.053268e+00    2.629370e+06    0.000000e+00    9.106086e+04   -1.021543e+02   -4.204853e+00    1.678712e-01   -4.055036e-02
   1.986587e-04    2.606130e+06    2.978409e+00    2.606127e+06    0.000000e+00    9.052311e+04   -1.018529e+02   -8.836861e+00    1.678701e-01   -4.054907e-02
   1.998377e-04    2.583090e+06    2.019813e+00    2.583088e+06    0.000000e+00    8.998853e+04   -1.015524e+02   -6.709427e+00    1.678690e-01   -4.054778e-02
   2.010238e-04    2.560255e+06    1.211040e+00    2.560254e+06    0.000000e+00    8.945711e+04   -1.012529e+02   -4.651080e+00    1.678678e-01   -4.054648e-02
   2.022168e-04    2.537624e+06    2.924078e+00    2.537621e+06    0.000000e+00    8.892883e+04   -1.009542e+02   -8.722640e+00    1.678667e-01   -4.054517e-02
   2.034170e-04    2.515190e+06    1.822521e+00    2.515188e+06    0.000000e+00    8.840366e+04   -1.006563e+02   -6.235566e+00    1.678656e-01   -4.054385e-02
   2.046242e-04    2.492954e+06    1.356064e+00    2.492953e+06    0.000000e+00    8.788159e+04   -1.003594e+02   -5.045375e+00    1.678644e-01   -4.054252e-02
