# All units in Hartree [AU] if not specified
# Convergence: Err(φ)=3.903e-11, Err(n_e)=9.932e-11, Err(IET)=9.517e-13, Q_net=1.364e-09
# {"name":"Ar", "Z":18, "Zstar":0.2526951772963706, "A":39.948,  "μ[AU]": -6.0615970754e-02, "Te[AU]": 1.958e-02, "Ti[AU]": 1.958e-02, "rs[AU]": 1.372e+01 }
   r[AU]           n[AU]           nf[AU]          nb[AU]          n_ion[AU]       φtot[AU]        δVxc/δρ[Au]     U_ei[AU]        U_ii[AU]        g_ii            
   1.000000e-04    7.298703e+06    5.830382e+00    7.298697e+06    0.000000e+00    1.799153e+05   -1.434897e+02   -1.421894e+01    2.222028e+00   -2.566177e-06
   1.005935e-04    7.234199e+06    3.671134e+00    7.234195e+06    0.000000e+00    1.788533e+05   -1.430664e+02   -1.029903e+01    2.222019e+00   -2.566137e-06
   1.011905e-04    7.170262e+06   -8.871509e-01    7.170263e+06    0.000000e+00    1.777976e+05   -1.426442e+02    1.062914e+00    2.222010e+00   -2.566096e-06
   1.017911e-04    7.106901e+06    4.829683e+00    7.106896e+06    0.000000e+00    1.767481e+05   -1.422234e+02   -1.247271e+01    2.222001e+00   -2.566054e-06
   1.023952e-04    7.044094e+06    5.050344e+00    7.044089e+06    0.000000e+00    1.757048e+05   -1.418037e+02   -1.286663e+01    2.221992e+00   -2.566013e-06
   1.030029e-04    6.981837e+06   -5.797205e-02    6.981837e+06    0.000000e+00    1.746677e+05   -1.413853e+02    1.062914e+00    2.221983e+00   -2.565971e-06
   1.036142e-04    6.920137e+06    2.915582e+00    6.920134e+06    0.000000e+00    1.736366e+05   -1.409682e+02   -8.763932e+00    2.221974e+00   -2.565929e-06
   1.042292e-04    6.858983e+06    5.400946e+00    6.858977e+06    0.000000e+00    1.726117e+05   -1.405523e+02   -1.348227e+01    2.221965e+00   -2.565887e-06
   1.048478e-04    6.798364e+06    2.641043e+00    6.798361e+06    0.000000e+00    1.715928e+05   -1.401376e+02   -8.175796e+00    2.221955e+00   -2.565844e-06
   1.054700e-04    6.738280e+06    1.358832e-01    6.738280e+06    0.000000e+00    1.705799e+05   -1.397241e+02   -9.605856e-01    2.221946e+00   -2.565802e-06
   1.060960e-04    6.678735e+06    4.778015e+00    6.678730e+06    0.000000e+00    1.695730e+05   -1.393119e+02   -1.237962e+01    2.221937e+00   -2.565759e-06
   1.067257e-04    6.619710e+06    4.267468e+00    6.619706e+06    0.000000e+00    1.685720e+05   -1.389008e+02   -1.144139e+01    2.221928e+00   -2.565715e-06
   1.073591e-04    6.561202e+06   -1.249845e+00    6.561203e+06    0.000000e+00    1.675770e+05   -1.384910e+02    1.062914e+00    2.221918e+00   -2.565672e-06
   1.079962e-04    6.503221e+06    3.258623e+00    6.503218e+06    0.000000e+00    1.665878e+05   -1.380824e+02   -9.474411e+00    2.221909e+00   -2.565628e-06
   1.086372e-04    6.445750e+06    4.893341e+00    6.445745e+06    0.000000e+00    1.656044e+05   -1.376750e+02   -1.258667e+01    2.221899e+00   -2.565584e-06
   1.092819e-04    6.388781e+06    1.614557e+00    6.388779e+06    0.000000e+00    1.646269e+05   -1.372688e+02   -5.777395e+00    2.221889e+00   -2.565540e-06
   1.099305e-04    6.332318e+06    9.254659e-01    6.332317e+06    0.000000e+00    1.636551e+05   -1.368638e+02   -3.887677e+00    2.221880e+00   -2.565495e-06
   1.105830e-04    6.276359e+06    4.607254e+00    6.276354e+06    0.000000e+00    1.626890e+05   -1.364600e+02   -1.206930e+01    2.221870e+00   -2.565451e-06
   1.112393e-04    6.220889e+06    3.453046e+00    6.220886e+06    0.000000e+00    1.617287e+05   -1.360574e+02   -9.866945e+00    2.221860e+00   -2.565406e-06
   1.118995e-04    6.165905e+06   -2.152316e+00    6.165907e+06    0.000000e+00    1.607740e+05   -1.356559e+02    1.062914e+00    2.221851e+00   -2.565360e-06
   1.125636e-04    6.111418e+06    3.464110e+00    6.111415e+06    0.000000e+00    1.598249e+05   -1.352557e+02   -9.888888e+00    2.221841e+00   -2.565315e-06
   1.132316e-04    6.057408e+06    4.339778e+00    6.057403e+06    0.000000e+00    1.588815e+05   -1.348567e+02   -1.157629e+01    2.221831e+00   -2.565269e-06
   1.139037e-04    6.003870e+06    6.086167e-01    6.003869e+06    0.000000e+00    1.579436e+05   -1.344587e+02   -2.877046e+00    2.221821e+00   -2.565223e-06
   1.145797e-04    5.950810e+06    1.535546e+00    5.950808e+06    0.000000e+00    1.570112e+05   -1.340620e+02   -5.575376e+00    2.221811e+00   -2.565176e-06
   1.152597e-04    5.898221e+06    4.340613e+00    5.898216e+06    0.000000e+00    1.560844e+05   -1.336665e+02   -1.157786e+01    2.221801e+00   -2.565129e-06
   1.159437e-04    5.846092e+06    2.623508e+00    5.846089e+06    0.000000e+00    1.551630e+05   -1.332721e+02   -8.137339e+00    2.221790e+00   -2.565082e-06
   1.166319e-04    5.794421e+06   -1.115778e+00    5.794422e+06    0.000000e+00    1.542471e+05   -1.328789e+02    1.062914e+00    2.221780e+00   -2.565035e-06
   1.173241e-04    5.743215e+06    3.533538e+00    5.743212e+06    0.000000e+00    1.533365e+05   -1.324869e+02   -1.002771e+01    2.221770e+00   -2.564988e-06
   1.180204e-04    5.692458e+06    3.740818e+00    5.692454e+06    0.000000e+00    1.524313e+05   -1.320960e+02   -1.043571e+01    2.221759e+00   -2.564940e-06
   1.187208e-04    5.642144e+06   -3.685721e-01    5.642145e+06    0.000000e+00    1.515315e+05   -1.317063e+02    1.062914e+00    2.221749e+00   -2.564892e-06
   1.194254e-04    5.592282e+06    1.969953e+00    5.592280e+06    0.000000e+00    1.506370e+05   -1.313177e+02   -6.650090e+00    2.221739e+00   -2.564843e-06
   1.201342e-04    5.542860e+06    4.008253e+00    5.542856e+06    0.000000e+00    1.497477e+05   -1.309303e+02   -1.095157e+01    2.221728e+00   -2.564795e-06
   1.208472e-04    5.493870e+06    1.807695e+00    5.493868e+06    0.000000e+00    1.488637e+05   -1.305440e+02   -6.258169e+00    2.221717e+00   -2.564746e-06
   1.215644e-04    5.445313e+06   -2.867548e-01    5.445314e+06    0.000000e+00    1.479850e+05   -1.301588e+02    1.062914e+00    2.221707e+00   -2.564697e-06
   1.222859e-04    5.397192e+06    3.494895e+00    5.397188e+06    0.000000e+00    1.471114e+05   -1.297748e+02   -9.950791e+00    2.221696e+00   -2.564647e-06
   1.230117e-04    5.349491e+06    3.109251e+00    5.349488e+06    0.000000e+00    1.462429e+05   -1.293920e+02   -9.168345e+00    2.221685e+00   -2.564597e-06
   1.237417e-04    5.302208e+06   -1.318109e+00    5.302209e+06    0.000000e+00    1.453796e+05   -1.290102e+02    1.062914e+00    2.221674e+00   -2.564547e-06
   1.244761e-04    5.255350e+06    2.260521e+00    5.255348e+06    0.000000e+00    1.445214e+05   -1.286296e+02   -7.327962e+00    2.221663e+00   -2.564497e-06
   1.252149e-04    5.208904e+06    3.614024e+00    5.208901e+06    0.000000e+00    1.436682e+05   -1.282501e+02   -1.018700e+01    2.221652e+00   -2.564446e-06
   1.259580e-04    5.162865e+06    9.958981e-01    5.162864e+06    0.000000e+00    1.428201e+05   -1.278717e+02   -4.096745e+00    2.221641e+00   -2.564395e-06
   1.267056e-04    5.117235e+06    3.617385e-01    5.117234e+06    0.000000e+00    1.419770e+05   -1.274944e+02   -1.972743e+00    2.221630e+00   -2.564344e-06
   1.274576e-04    5.072011e+06    3.363744e+00    5.072008e+06    0.000000e+00    1.411388e+05   -1.271183e+02   -9.687523e+00    2.221619e+00   -2.564292e-06
   1.282140e-04    5.027183e+06    2.466604e+00    5.027181e+06    0.000000e+00    1.403056e+05   -1.267433e+02   -7.791994e+00    2.221608e+00   -2.564240e-06
   1.289750e-04    4.982747e+06   -2.147621e+00    4.982750e+06    0.000000e+00    1.394773e+05   -1.263693e+02    1.062914e+00    2.221596e+00   -2.564188e-06
   1.297404e-04    4.938714e+06    2.427112e+00    4.938711e+06    0.000000e+00    1.386539e+05   -1.259965e+02   -7.704289e+00    2.221585e+00   -2.564135e-06
   1.305104e-04    4.895065e+06    3.176176e+00    4.895062e+06    0.000000e+00    1.378354e+05   -1.256248e+02   -9.306073e+00    2.221574e+00   -2.564082e-06
   1.312850e-04    4.851799e+06    2.018981e-01    4.851798e+06    0.000000e+00    1.370216e+05   -1.252541e+02   -1.286727e+00    2.221562e+00   -2.564029e-06
   1.320642e-04    4.808918e+06    8.546458e-01    4.808917e+06    0.000000e+00    1.362127e+05   -1.248846e+02   -3.672148e+00    2.221550e+00   -2.563976e-06
   1.328480e-04    4.766418e+06    3.166056e+00    4.766415e+06    0.000000e+00    1.354086e+05   -1.245162e+02   -9.285129e+00    2.221539e+00   -2.563922e-06
   1.336364e-04    4.724290e+06    1.822846e+00    4.724288e+06    0.000000e+00    1.346092e+05   -1.241488e+02   -6.295425e+00    2.221527e+00   -2.563868e-06
   1.344295e-04    4.682532e+06   -1.305455e+00    4.682533e+06    0.000000e+00    1.338145e+05   -1.237825e+02    1.062914e+00    2.221515e+00   -2.563813e-06
   1.352274e-04    4.641150e+06    2.494851e+00    4.641148e+06    0.000000e+00    1.330245e+05   -1.234174e+02   -7.854974e+00    2.221503e+00   -2.563759e-06
   1.360299e-04    4.600130e+06    2.700177e+00    4.600128e+06    0.000000e+00    1.322392e+05   -1.230532e+02   -8.303608e+00    2.221491e+00   -2.563704e-06
   1.368372e-04    4.559470e+06   -5.743441e-01    4.559470e+06    0.000000e+00    1.314585e+05   -1.226902e+02    1.062914e+00    2.221479e+00   -2.563648e-06
   1.376494e-04    4.519173e+06    1.213530e+00    4.519172e+06    0.000000e+00    1.306824e+05   -1.223282e+02   -4.717011e+00    2.221467e+00   -2.563592e-06
   1.384663e-04    4.479233e+06    2.906925e+00    4.479230e+06    0.000000e+00    1.299109e+05   -1.219673e+02   -8.745630e+00    2.221455e+00   -2.563536e-06
   1.392881e-04    4.439642e+06    1.175964e+00    4.439640e+06    0.000000e+00    1.291439e+05   -1.216075e+02   -4.612557e+00    2.221443e+00   -2.563480e-06
   1.401148e-04    4.400400e+06   -6.295505e-01    4.400401e+06    0.000000e+00    1.283815e+05   -1.212487e+02    1.062914e+00    2.221431e+00   -2.563423e-06
   1.409463e-04    4.361511e+06    2.474484e+00    4.361508e+06    0.000000e+00    1.276235e+05   -1.208910e+02   -7.809638e+00    2.221418e+00   -2.563366e-06
   1.417828e-04    4.322961e+06    2.215960e+00    4.322959e+06    0.000000e+00    1.268701e+05   -1.205344e+02   -7.225905e+00    2.221406e+00   -2.563309e-06
   1.426243e-04    4.284749e+06   -1.310015e+00    4.284751e+06    0.000000e+00    1.261210e+05   -1.201787e+02    1.062914e+00    2.221393e+00   -2.563251e-06
   1.434708e-04    4.246881e+06    1.456215e+00    4.246880e+06    0.000000e+00    1.253764e+05   -1.198242e+02   -5.369506e+00    2.221381e+00   -2.563193e-06
   1.443223e-04    4.209346e+06    2.598937e+00    4.209344e+06    0.000000e+00    1.246362e+05   -1.194707e+02   -8.083889e+00    2.221368e+00   -2.563134e-06
   1.451788e-04    4.172140e+06    5.323316e-01    4.172139e+06    0.000000e+00    1.239004e+05   -1.191182e+02   -2.611695e+00    2.221355e+00   -2.563076e-06
   1.460404e-04    4.135263e+06   -9.818725e-02    4.135263e+06    0.000000e+00    1.231689e+05   -1.187668e+02    1.062914e+00    2.221343e+00   -2.563017e-06
   1.469072e-04    4.098716e+06    2.383131e+00    4.098713e+06    0.000000e+00    1.224417e+05   -1.184164e+02   -7.605332e+00    2.221330e+00   -2.562957e-06
   1.477791e-04    4.062488e+06    1.713166e+00    4.062486e+06    0.000000e+00    1.217188e+05   -1.180671e+02   -6.025057e+00    2.221317e+00   -2.562897e-06
   1.486561e-04    4.026577e+06   -2.018256e+00    4.026579e+06    0.000000e+00    1.210002e+05   -1.177187e+02    1.062914e+00    2.221304e+00   -2.562837e-06
   1.495384e-04    3.990991e+06    1.604495e+00    3.990990e+06    0.000000e+00    1.202858e+05   -1.173715e+02   -5.751794e+00    2.221290e+00   -2.562776e-06
   1.504259e-04    3.955717e+06    2.263101e+00    3.955715e+06    0.000000e+00    1.195756e+05   -1.170252e+02   -7.333877e+00    2.221277e+00   -2.562716e-06
   1.513187e-04    3.920751e+06   -8.467346e-02    3.920751e+06    0.000000e+00    1.188696e+05   -1.166799e+02    1.062914e+00    2.221264e+00   -2.562654e-06
   1.522167e-04    3.886097e+06    3.100046e-01    3.886097e+06    0.000000e+00    1.181678e+05   -1.163357e+02   -1.762545e+00    2.221251e+00   -2.562593e-06
   1.531201e-04    3.851750e+06    2.231542e+00    3.851748e+06    0.000000e+00    1.174701e+05   -1.159925e+02   -7.261467e+00    2.221237e+00   -2.562531e-06
   1.540289e-04    3.817705e+06    1.201808e+00    3.817703e+06    0.000000e+00    1.167766e+05   -1.156503e+02   -4.684297e+00    2.221224e+00   -2.562468e-06
   1.549430e-04    3.783958e+06   -1.459495e+00    3.783959e+06    0.000000e+00    1.160871e+05   -1.153091e+02    1.062914e+00    2.221210e+00   -2.562406e-06
   1.558626e-04    3.750515e+06    1.667578e+00    3.750514e+06    0.000000e+00    1.154017e+05   -1.149690e+02   -5.911134e+00    2.221196e+00   -2.562342e-06
   1.567877e-04    3.717365e+06    1.897209e+00    3.717363e+06    0.000000e+00    1.147203e+05   -1.146298e+02   -6.475858e+00    2.221183e+00   -2.562279e-06
   1.577182e-04    3.684505e+06   -6.878376e-01    3.684506e+06    0.000000e+00    1.140430e+05   -1.142916e+02    1.062914e+00    2.221169e+00   -2.562215e-06
   1.586542e-04    3.651940e+06    6.061001e-01    3.651939e+06    0.000000e+00    1.133697e+05   -1.139544e+02   -2.868386e+00    2.221155e+00   -2.562151e-06
   1.595958e-04    3.619662e+06    2.038701e+00    3.619660e+06    0.000000e+00    1.127003e+05   -1.136183e+02   -6.812948e+00    2.221141e+00   -2.562086e-06
   1.605430e-04    3.587666e+06    7.008492e-01    3.587666e+06    0.000000e+00    1.120349e+05   -1.132830e+02   -3.185079e+00    2.221127e+00   -2.562021e-06
   1.614958e-04    3.555953e+06   -9.039308e-01    3.555954e+06    0.000000e+00    1.113734e+05   -1.129488e+02    1.062914e+00    2.221113e+00   -2.561956e-06
   1.624543e-04    3.524525e+06    1.665591e+00    3.524523e+06    0.000000e+00    1.107158e+05   -1.126156e+02   -5.906144e+00    2.221098e+00   -2.561890e-06
   1.634185e-04    3.493371e+06    1.513936e+00    3.493370e+06    0.000000e+00    1.100621e+05   -1.122834e+02   -5.519791e+00    2.221084e+00   -2.561824e-06
   1.643883e-04    3.462490e+06   -1.267295e+00    3.462492e+06    0.000000e+00    1.094122e+05   -1.119521e+02    1.062914e+00    2.221070e+00   -2.561758e-06
   1.653640e-04    3.431887e+06    8.190402e-01    3.431886e+06    0.000000e+00    1.087662e+05   -1.116219e+02   -3.562043e+00    2.221055e+00   -2.561691e-06
   1.663454e-04    3.401553e+06    1.807377e+00    3.401551e+06    0.000000e+00    1.081240e+05   -1.112926e+02   -6.257384e+00    2.221040e+00   -2.561623e-06
   1.673327e-04    3.371485e+06    2.027601e-01    3.371485e+06    0.000000e+00    1.074856e+05   -1.109643e+02   -1.290747e+00    2.221026e+00   -2.561556e-06
   1.683258e-04    3.341683e+06   -4.642365e-01    3.341683e+06    0.000000e+00    1.068509e+05   -1.106369e+02    1.062914e+00    2.221011e+00   -2.561487e-06
   1.693248e-04    3.312147e+06    1.602626e+00    3.312146e+06    0.000000e+00    1.062200e+05   -1.103105e+02   -5.747019e+00    2.220996e+00   -2.561419e-06
   1.703297e-04    3.282870e+06    1.129319e+00    3.282869e+06    0.000000e+00    1.055928e+05   -1.099851e+02   -4.481221e+00    2.220981e+00   -2.561350e-06
   1.713406e-04    3.253849e+06   -1.824555e+00    3.253851e+06    0.000000e+00    1.049693e+05   -1.096606e+02    1.062914e+00    2.220966e+00   -2.561281e-06
   1.723575e-04    3.225090e+06    9.501959e-01    3.225089e+06    0.000000e+00    1.043495e+05   -1.093371e+02   -3.961690e+00    2.220951e+00   -2.561211e-06
   1.733804e-04    3.196583e+06    1.548779e+00    3.196581e+06    0.000000e+00    1.037334e+05   -1.090146e+02   -5.609402e+00    2.220936e+00   -2.561141e-06
   1.744094e-04    3.168325e+06   -2.819624e-01    3.168326e+06    0.000000e+00    1.031209e+05   -1.086929e+02    1.062914e+00    2.220920e+00   -2.561070e-06
   1.754445e-04    3.140320e+06   -1.238697e-01    3.140320e+06    0.000000e+00    1.025120e+05   -1.083723e+02    1.062914e+00    2.220905e+00   -2.560999e-06
   1.764858e-04    3.112563e+06    1.499282e+00    3.112561e+06    0.000000e+00    1.019067e+05   -1.080526e+02   -5.481632e+00    2.220890e+00   -2.560928e-06
   1.775332e-04    3.085049e+06    7.366434e-01    3.085048e+06    0.000000e+00    1.013049e+05   -1.077338e+02   -3.301096e+00    2.220874e+00   -2.560856e-06
   1.785869e-04    3.057776e+06   -1.581177e+00    3.057778e+06    0.000000e+00    1.007067e+05   -1.074160e+02    1.062914e+00    2.220858e+00   -2.560784e-06
   1.796468e-04    3.030750e+06    1.011456e+00    3.030749e+06    0.000000e+00    1.001121e+05   -1.070991e+02   -4.142560e+00    2.220842e+00   -2.560711e-06
   1.807130e-04    3.003960e+06    1.269118e+00    3.003958e+06    0.000000e+00    9.952092e+04   -1.067832e+02   -4.869753e+00    2.220827e+00   -2.560638e-06
   1.817855e-04    2.977404e+06   -7.499092e-01    2.977405e+06    0.000000e+00    9.893326e+04   -1.064681e+02    1.062914e+00    2.220811e+00   -2.560564e-06
   1.828644e-04    2.951086e+06    1.317661e-01    2.951086e+06    0.000000e+00    9.834906e+04   -1.061541e+02   -9.389674e-01    2.220795e+00   -2.560490e-06
   1.839497e-04    2.925001e+06    1.356355e+00    2.924999e+06    0.000000e+00    9.776831e+04   -1.058409e+02   -5.105328e+00    2.220778e+00   -2.560416e-06
   1.850414e-04    2.899144e+06    3.460809e-01    2.899143e+06    0.000000e+00    9.719099e+04   -1.055287e+02   -1.909989e+00    2.220762e+00   -2.560341e-06
   1.861396e-04    2.873515e+06   -1.121051e+00    2.873516e+06    0.000000e+00    9.661708e+04   -1.052173e+02    1.062915e+00    2.220746e+00   -2.560265e-06
   1.872443e-04    2.848116e+06    1.025213e+00    2.848115e+06    0.000000e+00    9.604655e+04   -1.049070e+02   -4.182567e+00    2.220729e+00   -2.560190e-06
   1.883556e-04    2.822939e+06    9.785334e-01    2.822938e+06    0.000000e+00    9.547939e+04   -1.045975e+02   -4.045771e+00    2.220713e+00   -2.560113e-06
   1.894735e-04    2.797983e+06   -1.199181e+00    2.797984e+06    0.000000e+00    9.491557e+04   -1.042889e+02    1.062915e+00    2.220696e+00   -2.560037e-06
   1.905980e-04    2.773251e+06    3.134559e-01    2.773251e+06    0.000000e+00    9.435508e+04   -1.039812e+02   -1.776828e+00    2.220680e+00   -2.559960e-06
   1.917292e-04    2.748737e+06    1.180940e+00    2.748736e+06    0.000000e+00    9.379790e+04   -1.036745e+02   -4.626495e+00    2.220663e+00   -2.559882e-06
   1.928671e-04    2.724437e+06   -4.106949e-02    2.724437e+06    0.000000e+00    9.324400e+04   -1.033686e+02    1.062915e+00    2.220646e+00   -2.559804e-06
   1.940117e-04    2.700353e+06   -7.532513e-01    2.700354e+06    0.000000e+00    9.269337e+04   -1.030637e+02    1.062915e+00    2.220629e+00   -2.559726e-06
   1.951632e-04    2.676484e+06    9.925263e-01    2.676483e+06    0.000000e+00    9.214599e+04   -1.027597e+02   -4.086919e+00    2.220612e+00   -2.559647e-06
   1.963215e-04    2.652824e+06    6.819354e-01    2.652823e+06    0.000000e+00    9.160184e+04   -1.024565e+02   -3.122953e+00    2.220594e+00   -2.559567e-06
   1.974866e-04    2.629370e+06   -1.626757e+00    2.629372e+06    0.000000e+00    9.106090e+04   -1.021542e+02    1.062915e+00    2.220577e+00   -2.559487e-06
   1.986587e-04    2.606129e+06    4.330031e-01    2.606128e+06    0.000000e+00    9.052315e+04   -1.018529e+02   -2.248502e+00    2.220560e+00   -2.559407e-06
   1.998377e-04    2.583091e+06    9.917455e-01    2.583090e+06    0.000000e+00    8.998858e+04   -1.015525e+02   -4.084639e+00    2.220542e+00   -2.559326e-06
   2.010238e-04    2.560255e+06   -4.153529e-01    2.560255e+06    0.000000e+00    8.945716e+04   -1.012529e+02    1.062915e+00    2.220524e+00   -2.559245e-06
   2.022168e-04    2.537622e+06   -4.656774e-01    2.537622e+06    0.000000e+00    8.892887e+04   -1.009542e+02    1.062915e+00    2.220507e+00   -2.559163e-06
   2.034170e-04    2.515190e+06    9.196501e-01    2.515189e+06    0.000000e+00    8.840370e+04   -1.006564e+02   -3.870182e+00    2.220489e+00   -2.559081e-06
   2.046242e-04    2.492955e+06    3.806808e-01    2.492955e+06    0.000000e+00    8.788163e+04   -1.003594e+02   -2.047379e+00    2.220471e+00   -2.558998e-06
