# All units in Hartree [AU] if not specified
# Convergence: Err(φ)=4.208e-11, Err(n_e)=7.908e-11, Err(IET)=9.302e-13, Q_net=3.198e-07
# {"name":"Ar", "Z":18, "Zstar":1.045268360594342, "A":39.948,  "μ[AU]": -3.0568199004e-01, "Te[AU]": 8.406e-02, "Ti[AU]": 8.406e-02, "rs[AU]": 1.372e+01 }
   r[AU]           n[AU]           nf[AU]          nb[AU]          n_ion[AU]       φtot[AU]        δVxc/δρ[Au]     U_ei[AU]        U_ii[AU]        g_ii            
   1.000000e-04    7.298698e+06   -1.367698e+01    7.298712e+06    0.000000e+00    1.799156e+05   -1.434897e+02    4.831336e+00    4.451049e+01   -1.242990e-10
   1.005935e-04    7.234199e+06   -1.062544e+01    7.234210e+06    0.000000e+00    1.788536e+05   -1.430664e+02    4.831336e+00    4.451034e+01   -1.242970e-10
   1.011905e-04    7.170268e+06   -1.040245e+01    7.170278e+06    0.000000e+00    1.777979e+05   -1.426442e+02    4.831336e+00    4.451018e+01   -1.242950e-10
   1.017911e-04    7.106898e+06   -1.293937e+01    7.106911e+06    0.000000e+00    1.767484e+05   -1.422234e+02    4.831336e+00    4.451003e+01   -1.242930e-10
   1.023952e-04    7.044087e+06   -1.681807e+01    7.044104e+06    0.000000e+00    1.757051e+05   -1.418037e+02    4.831336e+00    4.450988e+01   -1.242910e-10
   1.030029e-04    6.981839e+06   -1.216824e+01    6.981851e+06    0.000000e+00    1.746679e+05   -1.413853e+02    4.831336e+00    4.450972e+01   -1.242890e-10
   1.036142e-04    6.920139e+06   -1.028082e+01    6.920149e+06    0.000000e+00    1.736369e+05   -1.409682e+02    4.831336e+00    4.450957e+01   -1.242869e-10
   1.042292e-04    6.858981e+06   -1.109231e+01    6.858992e+06    0.000000e+00    1.726119e+05   -1.405523e+02    4.831336e+00    4.450941e+01   -1.242849e-10
   1.048478e-04    6.798361e+06   -1.452032e+01    6.798375e+06    0.000000e+00    1.715931e+05   -1.401376e+02    4.831336e+00    4.450925e+01   -1.242828e-10
   1.054700e-04    6.738280e+06   -1.458417e+01    6.738294e+06    0.000000e+00    1.705802e+05   -1.397241e+02    4.831336e+00    4.450910e+01   -1.242808e-10
   1.060960e-04    6.678733e+06   -1.114913e+01    6.678744e+06    0.000000e+00    1.695733e+05   -1.393119e+02    4.831336e+00    4.450894e+01   -1.242787e-10
   1.067257e-04    6.619710e+06   -1.034191e+01    6.619720e+06    0.000000e+00    1.685723e+05   -1.389008e+02    4.831336e+00    4.450878e+01   -1.242766e-10
   1.073591e-04    6.561206e+06   -1.209003e+01    6.561218e+06    0.000000e+00    1.675772e+05   -1.384910e+02    4.831336e+00    4.450862e+01   -1.242745e-10
   1.079962e-04    6.503216e+06   -1.632236e+01    6.503232e+06    0.000000e+00    1.665880e+05   -1.380824e+02    4.831336e+00    4.450845e+01   -1.242724e-10
   1.086372e-04    6.445746e+06   -1.290575e+01    6.445759e+06    0.000000e+00    1.656047e+05   -1.376750e+02    4.831336e+00    4.450829e+01   -1.242702e-10
   1.092819e-04    6.388783e+06   -1.058172e+01    6.388794e+06    0.000000e+00    1.646271e+05   -1.372688e+02    4.831336e+00    4.450813e+01   -1.242681e-10
   1.099305e-04    6.332321e+06   -1.075296e+01    6.332332e+06    0.000000e+00    1.636553e+05   -1.368638e+02    4.831336e+00    4.450796e+01   -1.242659e-10
   1.105830e-04    6.276355e+06   -1.335788e+01    6.276369e+06    0.000000e+00    1.626893e+05   -1.364600e+02    4.831336e+00    4.450780e+01   -1.242638e-10
   1.112393e-04    6.220884e+06   -1.545647e+01    6.220900e+06    0.000000e+00    1.617289e+05   -1.360573e+02    4.831336e+00    4.450763e+01   -1.242616e-10
   1.118995e-04    6.165910e+06   -1.171241e+01    6.165921e+06    0.000000e+00    1.607743e+05   -1.356559e+02    4.831336e+00    4.450746e+01   -1.242594e-10
   1.125636e-04    6.111418e+06   -1.040481e+01    6.111429e+06    0.000000e+00    1.598252e+05   -1.352557e+02    4.831336e+00    4.450729e+01   -1.242572e-10
   1.132316e-04    6.057406e+06   -1.146627e+01    6.057417e+06    0.000000e+00    1.588817e+05   -1.348566e+02    4.831336e+00    4.450712e+01   -1.242549e-10
   1.139037e-04    6.003869e+06   -1.483168e+01    6.003883e+06    0.000000e+00    1.579439e+05   -1.344587e+02    4.831336e+00    4.450695e+01   -1.242527e-10
   1.145797e-04    5.950809e+06   -1.364995e+01    5.950822e+06    0.000000e+00    1.570115e+05   -1.340620e+02    4.831336e+00    4.450678e+01   -1.242505e-10
   1.152597e-04    5.898219e+06   -1.094846e+01    5.898230e+06    0.000000e+00    1.560847e+05   -1.336665e+02    4.831336e+00    4.450661e+01   -1.242482e-10
   1.159437e-04    5.846092e+06   -1.057242e+01    5.846103e+06    0.000000e+00    1.551633e+05   -1.332722e+02    4.831336e+00    4.450643e+01   -1.242459e-10
   1.166319e-04    5.794424e+06   -1.243862e+01    5.794436e+06    0.000000e+00    1.542473e+05   -1.328789e+02    4.831336e+00    4.450626e+01   -1.242436e-10
   1.173241e-04    5.743209e+06   -1.628270e+01    5.743226e+06    0.000000e+00    1.533368e+05   -1.324869e+02    4.831336e+00    4.450608e+01   -1.242413e-10
   1.180204e-04    5.692456e+06   -1.229341e+01    5.692468e+06    0.000000e+00    1.524316e+05   -1.320960e+02    4.831336e+00    4.450590e+01   -1.242390e-10
   1.187208e-04    5.642148e+06   -1.056667e+01    5.642158e+06    0.000000e+00    1.515318e+05   -1.317063e+02    4.831336e+00    4.450573e+01   -1.242367e-10
   1.194254e-04    5.592283e+06   -1.103201e+01    5.592294e+06    0.000000e+00    1.506372e+05   -1.313177e+02    4.831336e+00    4.450555e+01   -1.242343e-10
   1.201342e-04    5.542856e+06   -1.363089e+01    5.542869e+06    0.000000e+00    1.497480e+05   -1.309303e+02    4.831336e+00    4.450537e+01   -1.242320e-10
   1.208472e-04    5.493868e+06   -1.435555e+01    5.493882e+06    0.000000e+00    1.488640e+05   -1.305440e+02    4.831336e+00    4.450518e+01   -1.242296e-10
   1.215644e-04    5.445316e+06   -1.136240e+01    5.445327e+06    0.000000e+00    1.479852e+05   -1.301588e+02    4.831336e+00    4.450500e+01   -1.242272e-10
   1.222859e-04    5.397191e+06   -1.050956e+01    5.397202e+06    0.000000e+00    1.471116e+05   -1.297748e+02    4.831336e+00    4.450482e+01   -1.242248e-10
   1.230117e-04    5.349490e+06   -1.174447e+01    5.349501e+06    0.000000e+00    1.462432e+05   -1.293919e+02    4.831336e+00    4.450463e+01   -1.242224e-10
   1.237417e-04    5.302207e+06   -1.501397e+01    5.302222e+06    0.000000e+00    1.453799e+05   -1.290102e+02    4.831336e+00    4.450445e+01   -1.242200e-10
   1.244761e-04    5.255348e+06   -1.287752e+01    5.255361e+06    0.000000e+00    1.445216e+05   -1.286296e+02    4.831336e+00    4.450426e+01   -1.242175e-10
   1.252149e-04    5.208903e+06   -1.079596e+01    5.208914e+06    0.000000e+00    1.436685e+05   -1.282501e+02    4.831336e+00    4.450407e+01   -1.242151e-10
   1.259580e-04    5.162867e+06   -1.075264e+01    5.162878e+06    0.000000e+00    1.428203e+05   -1.278717e+02    4.831336e+00    4.450388e+01   -1.242126e-10
   1.267056e-04    5.117235e+06   -1.268327e+01    5.117248e+06    0.000000e+00    1.419772e+05   -1.274944e+02    4.831336e+00    4.450369e+01   -1.242101e-10
   1.274576e-04    5.072006e+06   -1.503862e+01    5.072021e+06    0.000000e+00    1.411391e+05   -1.271183e+02    4.831336e+00    4.450350e+01   -1.242076e-10
   1.282140e-04    5.027182e+06   -1.179925e+01    5.027194e+06    0.000000e+00    1.403058e+05   -1.267432e+02    4.831336e+00    4.450331e+01   -1.242051e-10
   1.289750e-04    4.982752e+06   -1.055225e+01    4.982763e+06    0.000000e+00    1.394776e+05   -1.263693e+02    4.831336e+00    4.450312e+01   -1.242026e-10
   1.297404e-04    4.938713e+06   -1.123128e+01    4.938724e+06    0.000000e+00    1.386542e+05   -1.259965e+02    4.831336e+00    4.450292e+01   -1.242000e-10
   1.305104e-04    4.895061e+06   -1.379375e+01    4.895075e+06    0.000000e+00    1.378356e+05   -1.256247e+02    4.831336e+00    4.450273e+01   -1.241975e-10
   1.312850e-04    4.851798e+06   -1.345280e+01    4.851812e+06    0.000000e+00    1.370219e+05   -1.252541e+02    4.831336e+00    4.450253e+01   -1.241949e-10
   1.320642e-04    4.808919e+06   -1.107963e+01    4.808930e+06    0.000000e+00    1.362130e+05   -1.248846e+02    4.831336e+00    4.450233e+01   -1.241923e-10
   1.328480e-04    4.766417e+06   -1.058587e+01    4.766428e+06    0.000000e+00    1.354088e+05   -1.245162e+02    4.831336e+00    4.450213e+01   -1.241897e-10
   1.336364e-04    4.724289e+06   -1.193205e+01    4.724301e+06    0.000000e+00    1.346094e+05   -1.241488e+02    4.831336e+00    4.450193e+01   -1.241871e-10
   1.344295e-04    4.682531e+06   -1.506299e+01    4.682546e+06    0.000000e+00    1.338148e+05   -1.237825e+02    4.831336e+00    4.450173e+01   -1.241845e-10
   1.352274e-04    4.641148e+06   -1.225302e+01    4.641161e+06    0.000000e+00    1.330248e+05   -1.234173e+02    4.831336e+00    4.450153e+01   -1.241818e-10
   1.360299e-04    4.600130e+06   -1.066347e+01    4.600141e+06    0.000000e+00    1.322394e+05   -1.230532e+02    4.831336e+00    4.450132e+01   -1.241791e-10
   1.368372e-04    4.559472e+06   -1.086799e+01    4.559483e+06    0.000000e+00    1.314587e+05   -1.226902e+02    4.831336e+00    4.450112e+01   -1.241764e-10
   1.376494e-04    4.519172e+06   -1.281522e+01    4.519185e+06    0.000000e+00    1.306826e+05   -1.223282e+02    4.831336e+00    4.450091e+01   -1.241737e-10
   1.384663e-04    4.479228e+06   -1.400933e+01    4.479242e+06    0.000000e+00    1.299111e+05   -1.219673e+02    4.831336e+00    4.450070e+01   -1.241710e-10
   1.392881e-04    4.439642e+06   -1.139245e+01    4.439653e+06    0.000000e+00    1.291442e+05   -1.216075e+02    4.831336e+00    4.450049e+01   -1.241683e-10
   1.401148e-04    4.400403e+06   -1.052587e+01    4.400414e+06    0.000000e+00    1.283817e+05   -1.212487e+02    4.831336e+00    4.450028e+01   -1.241656e-10
   1.409463e-04    4.361509e+06   -1.136150e+01    4.361521e+06    0.000000e+00    1.276238e+05   -1.208910e+02    4.831336e+00    4.450007e+01   -1.241628e-10
   1.417828e-04    4.322958e+06   -1.385183e+01    4.322972e+06    0.000000e+00    1.268703e+05   -1.205343e+02    4.831336e+00    4.449986e+01   -1.241600e-10
   1.426243e-04    4.284750e+06   -1.270534e+01    4.284763e+06    0.000000e+00    1.261213e+05   -1.201787e+02    4.831336e+00    4.449965e+01   -1.241572e-10
   1.434708e-04    4.246881e+06   -1.083546e+01    4.246892e+06    0.000000e+00    1.253767e+05   -1.198242e+02    4.831336e+00    4.449943e+01   -1.241544e-10
   1.443223e-04    4.209345e+06   -1.063008e+01    4.209356e+06    0.000000e+00    1.246365e+05   -1.194707e+02    4.831336e+00    4.449921e+01   -1.241516e-10
   1.451788e-04    4.172139e+06   -1.203575e+01    4.172151e+06    0.000000e+00    1.239006e+05   -1.191182e+02    4.831336e+00    4.449900e+01   -1.241487e-10
   1.460404e-04    4.135261e+06   -1.454022e+01    4.135276e+06    0.000000e+00    1.231691e+05   -1.187668e+02    4.831336e+00    4.449878e+01   -1.241459e-10
   1.469072e-04    4.098714e+06   -1.173100e+01    4.098726e+06    0.000000e+00    1.224420e+05   -1.184164e+02    4.831336e+00    4.449856e+01   -1.241430e-10
   1.477791e-04    4.062488e+06   -1.054475e+01    4.062499e+06    0.000000e+00    1.217191e+05   -1.180671e+02    4.831336e+00    4.449833e+01   -1.241401e-10
   1.486561e-04    4.026581e+06   -1.093650e+01    4.026592e+06    0.000000e+00    1.210004e+05   -1.177188e+02    4.831336e+00    4.449811e+01   -1.241372e-10
   1.495384e-04    3.990989e+06   -1.286772e+01    3.991002e+06    0.000000e+00    1.202860e+05   -1.173714e+02    4.831336e+00    4.449789e+01   -1.241342e-10
   1.504259e-04    3.955714e+06   -1.315111e+01    3.955727e+06    0.000000e+00    1.195759e+05   -1.170252e+02    4.831336e+00    4.449766e+01   -1.241313e-10
   1.513187e-04    3.920752e+06   -1.105407e+01    3.920763e+06    0.000000e+00    1.188699e+05   -1.166800e+02    4.831336e+00    4.449743e+01   -1.241283e-10
   1.522167e-04    3.886098e+06   -1.048690e+01    3.886109e+06    0.000000e+00    1.181681e+05   -1.163357e+02    4.831336e+00    4.449720e+01   -1.241253e-10
   1.531201e-04    3.851749e+06   -1.142778e+01    3.851760e+06    0.000000e+00    1.174704e+05   -1.159925e+02    4.831336e+00    4.449698e+01   -1.241223e-10
   1.540289e-04    3.817702e+06   -1.381708e+01    3.817716e+06    0.000000e+00    1.167768e+05   -1.156503e+02    4.831336e+00    4.449674e+01   -1.241193e-10
   1.549430e-04    3.783959e+06   -1.207907e+01    3.783971e+06    0.000000e+00    1.160874e+05   -1.153091e+02    4.831336e+00    4.449651e+01   -1.241163e-10
   1.558626e-04    3.750515e+06   -1.062729e+01    3.750526e+06    0.000000e+00    1.154020e+05   -1.149690e+02    4.831336e+00    4.449628e+01   -1.241132e-10
   1.567877e-04    3.717365e+06   -1.063207e+01    3.717375e+06    0.000000e+00    1.147206e+05   -1.146298e+02    4.831336e+00    4.449604e+01   -1.241101e-10
   1.577182e-04    3.684506e+06   -1.206694e+01    3.684518e+06    0.000000e+00    1.140433e+05   -1.142916e+02    4.831336e+00    4.449581e+01   -1.241070e-10
   1.586542e-04    3.651937e+06   -1.358110e+01    3.651951e+06    0.000000e+00    1.133699e+05   -1.139544e+02    4.831336e+00    4.449557e+01   -1.241039e-10
   1.595958e-04    3.619660e+06   -1.129313e+01    3.619672e+06    0.000000e+00    1.127005e+05   -1.136182e+02    4.831336e+00    4.449533e+01   -1.241008e-10
   1.605430e-04    3.587667e+06   -1.042857e+01    3.587677e+06    0.000000e+00    1.120351e+05   -1.132831e+02    4.831336e+00    4.449509e+01   -1.240977e-10
   1.614958e-04    3.555955e+06   -1.095242e+01    3.555966e+06    0.000000e+00    1.113736e+05   -1.129489e+02    4.831336e+00    4.449484e+01   -1.240945e-10
   1.624543e-04    3.524522e+06   -1.282951e+01    3.524535e+06    0.000000e+00    1.107160e+05   -1.126156e+02    4.831336e+00    4.449460e+01   -1.240913e-10
   1.634185e-04    3.493369e+06   -1.243291e+01    3.493381e+06    0.000000e+00    1.100623e+05   -1.122834e+02    4.831336e+00    4.449436e+01   -1.240881e-10
   1.643883e-04    3.462492e+06   -1.075206e+01    3.462503e+06    0.000000e+00    1.094125e+05   -1.119522e+02    4.831336e+00    4.449411e+01   -1.240849e-10
   1.653640e-04    3.431887e+06   -1.042847e+01    3.431898e+06    0.000000e+00    1.087665e+05   -1.116219e+02    4.831336e+00    4.449386e+01   -1.240816e-10
   1.663454e-04    3.401552e+06   -1.142282e+01    3.401563e+06    0.000000e+00    1.081242e+05   -1.112926e+02    4.831336e+00    4.449361e+01   -1.240784e-10
   1.673327e-04    3.371482e+06   -1.370148e+01    3.371496e+06    0.000000e+00    1.074858e+05   -1.109642e+02    4.831336e+00    4.449336e+01   -1.240751e-10
   1.683258e-04    3.341683e+06   -1.154653e+01    3.341695e+06    0.000000e+00    1.068512e+05   -1.106369e+02    4.831336e+00    4.449311e+01   -1.240718e-10
   1.693248e-04    3.312147e+06   -1.042832e+01    3.312157e+06    0.000000e+00    1.062203e+05   -1.103105e+02    4.831336e+00    4.449285e+01   -1.240685e-10
   1.703297e-04    3.282870e+06   -1.060116e+01    3.282880e+06    0.000000e+00    1.055931e+05   -1.099851e+02    4.831336e+00    4.449260e+01   -1.240651e-10
   1.713406e-04    3.253850e+06   -1.202039e+01    3.253862e+06    0.000000e+00    1.049696e+05   -1.096606e+02    4.831336e+00    4.449234e+01   -1.240618e-10
   1.723575e-04    3.225088e+06   -1.276944e+01    3.225100e+06    0.000000e+00    1.043498e+05   -1.093371e+02    4.831336e+00    4.449208e+01   -1.240584e-10
   1.733804e-04    3.196582e+06   -1.090614e+01    3.196593e+06    0.000000e+00    1.037336e+05   -1.090146e+02    4.831336e+00    4.449182e+01   -1.240550e-10
   1.744094e-04    3.168327e+06   -1.030061e+01    3.168337e+06    0.000000e+00    1.031211e+05   -1.086930e+02    4.831336e+00    4.449156e+01   -1.240516e-10
   1.754445e-04    3.140320e+06   -1.091811e+01    3.140331e+06    0.000000e+00    1.025122e+05   -1.083723e+02    4.831336e+00    4.449130e+01   -1.240481e-10
   1.764858e-04    3.112560e+06   -1.272435e+01    3.112572e+06    0.000000e+00    1.019069e+05   -1.080526e+02    4.831336e+00    4.449103e+01   -1.240447e-10
   1.775332e-04    3.085047e+06   -1.181477e+01    3.085059e+06    0.000000e+00    1.013052e+05   -1.077338e+02    4.831336e+00    4.449076e+01   -1.240412e-10
   1.785869e-04    3.057779e+06   -1.047885e+01    3.057789e+06    0.000000e+00    1.007070e+05   -1.074160e+02    4.831336e+00    4.449050e+01   -1.240377e-10
   1.796468e-04    3.030749e+06   -1.034106e+01    3.030760e+06    0.000000e+00    1.001123e+05   -1.070991e+02    4.831336e+00    4.449023e+01   -1.240342e-10
   1.807130e-04    3.003958e+06   -1.136496e+01    3.003969e+06    0.000000e+00    9.952118e+04   -1.067832e+02    4.831336e+00    4.448996e+01   -1.240306e-10
   1.817855e-04    2.977403e+06   -1.309768e+01    2.977416e+06    0.000000e+00    9.893351e+04   -1.064681e+02    4.831336e+00    4.448968e+01   -1.240271e-10
   1.828644e-04    2.951086e+06   -1.108628e+01    2.951097e+06    0.000000e+00    9.834932e+04   -1.061541e+02    4.831336e+00    4.448941e+01   -1.240235e-10
   1.839497e-04    2.925000e+06   -1.023903e+01    2.925010e+06    0.000000e+00    9.776857e+04   -1.058409e+02    4.831336e+00    4.448913e+01   -1.240199e-10
   1.850414e-04    2.899144e+06   -1.052674e+01    2.899154e+06    0.000000e+00    9.719125e+04   -1.055287e+02    4.831336e+00    4.448886e+01   -1.240163e-10
   1.861396e-04    2.873515e+06   -1.191673e+01    2.873527e+06    0.000000e+00    9.661734e+04   -1.052173e+02    4.831336e+00    4.448858e+01   -1.240126e-10
   1.872443e-04    2.848114e+06   -1.207540e+01    2.848126e+06    0.000000e+00    9.604681e+04   -1.049069e+02    4.831336e+00    4.448829e+01   -1.240089e-10
   1.883556e-04    2.822939e+06   -1.056567e+01    2.822949e+06    0.000000e+00    9.547964e+04   -1.045975e+02    4.831336e+00    4.448801e+01   -1.240052e-10
   1.894735e-04    2.797985e+06   -1.016312e+01    2.797995e+06    0.000000e+00    9.491583e+04   -1.042889e+02    4.831336e+00    4.448773e+01   -1.240015e-10
   1.905980e-04    2.773251e+06   -1.084017e+01    2.773262e+06    0.000000e+00    9.435534e+04   -1.039812e+02    4.831336e+00    4.448744e+01   -1.239978e-10
   1.917292e-04    2.748734e+06   -1.255786e+01    2.748747e+06    0.000000e+00    9.379815e+04   -1.036745e+02    4.831336e+00    4.448715e+01   -1.239940e-10
   1.928671e-04    2.724437e+06   -1.127721e+01    2.724448e+06    0.000000e+00    9.324426e+04   -1.033686e+02    4.831336e+00    4.448686e+01   -1.239903e-10
   1.940117e-04    2.700354e+06   -1.022781e+01    2.700364e+06    0.000000e+00    9.269363e+04   -1.030637e+02    4.831336e+00    4.448657e+01   -1.239865e-10
   1.951632e-04    2.676483e+06   -1.022974e+01    2.676494e+06    0.000000e+00    9.214625e+04   -1.027597e+02    4.831336e+00    4.448628e+01   -1.239826e-10
   1.963215e-04    2.652822e+06   -1.125441e+01    2.652834e+06    0.000000e+00    9.160210e+04   -1.024565e+02    4.831336e+00    4.448599e+01   -1.239788e-10
   1.974866e-04    2.629370e+06   -1.233379e+01    2.629383e+06    0.000000e+00    9.106116e+04   -1.021542e+02    4.831336e+00    4.448569e+01   -1.239749e-10
   1.986587e-04    2.606128e+06   -1.068197e+01    2.606139e+06    0.000000e+00    9.052341e+04   -1.018529e+02    4.831336e+00    4.448539e+01   -1.239710e-10
   1.998377e-04    2.583091e+06   -1.005137e+01    2.583101e+06    0.000000e+00    8.998884e+04   -1.015524e+02    4.831336e+00    4.448509e+01   -1.239671e-10
   2.010238e-04    2.560255e+06   -1.041916e+01    2.560266e+06    0.000000e+00    8.945742e+04   -1.012529e+02    4.831336e+00    4.448479e+01   -1.239632e-10
   2.022168e-04    2.537621e+06   -1.175926e+01    2.537633e+06    0.000000e+00    8.892913e+04   -1.009541e+02    4.831336e+00    4.448449e+01   -1.239592e-10
   2.034170e-04    2.515188e+06   -1.147474e+01    2.515200e+06    0.000000e+00    8.840396e+04   -1.006563e+02    4.831336e+00    4.448418e+01   -1.239552e-10
   2.046242e-04    2.492955e+06   -1.025537e+01    2.492965e+06    0.000000e+00    8.788189e+04   -1.003594e+02    4.831336e+00    4.448387e+01   -1.239512e-10
