# All units in Hartree [AU] if not specified
# Convergence: Err(φ)=4.044e-11, Err(n_e)=8.461e-11, Err(IET)=9.821e-13, Q_net=2.787e-07
# {"name":"Ar", "Z":18, "Zstar":0.7858497079052, "A":39.948,  "μ[AU]": -2.0574051576e-01, "Te[AU]": 5.983e-02, "Ti[AU]": 5.983e-02, "rs[AU]": 1.372e+01 }
   r[AU]           n[AU]           nf[AU]          nb[AU]          n_ion[AU]       φtot[AU]        δVxc/δρ[Au]     U_ei[AU]        U_ii[AU]        g_ii            
   1.000000e-04    7.298701e+06   -5.220703e+00    7.298706e+06    0.000000e+00    1.799155e+05   -1.434897e+02    3.402128e+00    2.522432e+01   -2.756607e-09
   1.005935e-04    7.234194e+06   -9.971245e+00    7.234204e+06    0.000000e+00    1.788535e+05   -1.430663e+02    3.402128e+00    2.522423e+01   -2.756564e-09
   1.011905e-04    7.170265e+06   -6.944441e+00    7.170272e+06    0.000000e+00    1.777977e+05   -1.426442e+02    3.402128e+00    2.522415e+01   -2.756520e-09
   1.017911e-04    7.106901e+06   -4.145470e+00    7.106905e+06    0.000000e+00    1.767483e+05   -1.422234e+02    3.402128e+00    2.522406e+01   -2.756475e-09
   1.023952e-04    7.044093e+06   -4.662962e+00    7.044098e+06    0.000000e+00    1.757050e+05   -1.418037e+02    3.402128e+00    2.522397e+01   -2.756431e-09
   1.030029e-04    6.981837e+06   -8.403692e+00    6.981846e+06    0.000000e+00    1.746678e+05   -1.413853e+02    3.402128e+00    2.522389e+01   -2.756386e-09
   1.036142e-04    6.920135e+06   -8.225659e+00    6.920143e+06    0.000000e+00    1.736368e+05   -1.409682e+02    3.402128e+00    2.522380e+01   -2.756341e-09
   1.042292e-04    6.858982e+06   -4.674124e+00    6.858986e+06    0.000000e+00    1.726118e+05   -1.405523e+02    3.402128e+00    2.522371e+01   -2.756295e-09
   1.048478e-04    6.798365e+06   -4.345419e+00    6.798370e+06    0.000000e+00    1.715929e+05   -1.401376e+02    3.402128e+00    2.522362e+01   -2.756250e-09
   1.054700e-04    6.738281e+06   -7.156802e+00    6.738289e+06    0.000000e+00    1.705801e+05   -1.397241e+02    3.402128e+00    2.522353e+01   -2.756204e-09
   1.060960e-04    6.678729e+06   -9.625594e+00    6.678738e+06    0.000000e+00    1.695732e+05   -1.393118e+02    3.402128e+00    2.522344e+01   -2.756158e-09
   1.067257e-04    6.619709e+06   -5.385249e+00    6.619714e+06    0.000000e+00    1.685722e+05   -1.389008e+02    3.402128e+00    2.522335e+01   -2.756111e-09
   1.073591e-04    6.561208e+06   -4.263923e+00    6.561212e+06    0.000000e+00    1.675771e+05   -1.384910e+02    3.402128e+00    2.522326e+01   -2.756065e-09
   1.079962e-04    6.503220e+06   -6.183284e+00    6.503227e+06    0.000000e+00    1.665879e+05   -1.380824e+02    3.402128e+00    2.522317e+01   -2.756018e-09
   1.086372e-04    6.445742e+06   -1.105544e+01    6.445753e+06    0.000000e+00    1.656046e+05   -1.376749e+02    3.402128e+00    2.522307e+01   -2.755970e-09
   1.092819e-04    6.388782e+06   -6.245107e+00    6.388788e+06    0.000000e+00    1.646270e+05   -1.372688e+02    3.402128e+00    2.522298e+01   -2.755923e-09
   1.099305e-04    6.332322e+06   -4.389576e+00    6.332326e+06    0.000000e+00    1.636552e+05   -1.368638e+02    3.402128e+00    2.522289e+01   -2.755875e-09
   1.105830e-04    6.276357e+06   -5.480291e+00    6.276363e+06    0.000000e+00    1.626892e+05   -1.364600e+02    3.402128e+00    2.522279e+01   -2.755827e-09
   1.112393e-04    6.220885e+06   -9.435266e+00    6.220894e+06    0.000000e+00    1.617288e+05   -1.360573e+02    3.402128e+00    2.522270e+01   -2.755778e-09
   1.118995e-04    6.165909e+06   -7.243870e+00    6.165916e+06    0.000000e+00    1.607742e+05   -1.356559e+02    3.402128e+00    2.522261e+01   -2.755730e-09
   1.125636e-04    6.111418e+06   -4.701246e+00    6.111423e+06    0.000000e+00    1.598251e+05   -1.352557e+02    3.402128e+00    2.522251e+01   -2.755681e-09
   1.132316e-04    6.057407e+06   -5.019540e+00    6.057412e+06    0.000000e+00    1.588816e+05   -1.348566e+02    3.402128e+00    2.522241e+01   -2.755631e-09
   1.139037e-04    6.003870e+06   -8.110854e+00    6.003878e+06    0.000000e+00    1.579438e+05   -1.344587e+02    3.402128e+00    2.522232e+01   -2.755582e-09
   1.145797e-04    5.950808e+06   -8.362464e+00    5.950817e+06    0.000000e+00    1.570114e+05   -1.340620e+02    3.402128e+00    2.522222e+01   -2.755532e-09
   1.152597e-04    5.898220e+06   -5.179889e+00    5.898225e+06    0.000000e+00    1.560846e+05   -1.336665e+02    3.402128e+00    2.522212e+01   -2.755482e-09
   1.159437e-04    5.846093e+06   -4.773301e+00    5.846097e+06    0.000000e+00    1.551632e+05   -1.332722e+02    3.402128e+00    2.522202e+01   -2.755431e-09
   1.166319e-04    5.794423e+06   -7.054354e+00    5.794430e+06    0.000000e+00    1.542472e+05   -1.328789e+02    3.402128e+00    2.522192e+01   -2.755381e-09
   1.173241e-04    5.743211e+06   -9.582808e+00    5.743220e+06    0.000000e+00    1.533367e+05   -1.324869e+02    3.402128e+00    2.522182e+01   -2.755330e-09
   1.180204e-04    5.692457e+06   -5.815179e+00    5.692462e+06    0.000000e+00    1.524315e+05   -1.320960e+02    3.402128e+00    2.522172e+01   -2.755278e-09
   1.187208e-04    5.642148e+06   -4.727815e+00    5.642153e+06    0.000000e+00    1.515317e+05   -1.317063e+02    3.402128e+00    2.522162e+01   -2.755227e-09
   1.194254e-04    5.592282e+06   -6.251620e+00    5.592288e+06    0.000000e+00    1.506371e+05   -1.313177e+02    3.402128e+00    2.522152e+01   -2.755175e-09
   1.201342e-04    5.542854e+06   -1.031186e+01    5.542864e+06    0.000000e+00    1.497479e+05   -1.309302e+02    3.402128e+00    2.522142e+01   -2.755122e-09
   1.208472e-04    5.493870e+06   -6.566386e+00    5.493877e+06    0.000000e+00    1.488639e+05   -1.305440e+02    3.402128e+00    2.522132e+01   -2.755070e-09
   1.215644e-04    5.445317e+06   -4.846668e+00    5.445322e+06    0.000000e+00    1.479851e+05   -1.301588e+02    3.402128e+00    2.522121e+01   -2.755017e-09
   1.222859e-04    5.397191e+06   -5.661883e+00    5.397196e+06    0.000000e+00    1.471115e+05   -1.297748e+02    3.402128e+00    2.522111e+01   -2.754964e-09
   1.230117e-04    5.349487e+06   -8.948179e+00    5.349496e+06    0.000000e+00    1.462431e+05   -1.293919e+02    3.402128e+00    2.522100e+01   -2.754910e-09
   1.237417e-04    5.302210e+06   -7.441877e+00    5.302217e+06    0.000000e+00    1.453798e+05   -1.290102e+02    3.402128e+00    2.522090e+01   -2.754856e-09
   1.244761e-04    5.255351e+06   -5.133228e+00    5.255356e+06    0.000000e+00    1.445215e+05   -1.286296e+02    3.402128e+00    2.522079e+01   -2.754802e-09
   1.252149e-04    5.208904e+06   -5.283137e+00    5.208909e+06    0.000000e+00    1.436684e+05   -1.282501e+02    3.402128e+00    2.522069e+01   -2.754748e-09
   1.259580e-04    5.162864e+06   -7.822939e+00    5.162872e+06    0.000000e+00    1.428202e+05   -1.278717e+02    3.402128e+00    2.522058e+01   -2.754693e-09
   1.267056e-04    5.117234e+06   -8.418905e+00    5.117242e+06    0.000000e+00    1.419771e+05   -1.274944e+02    3.402128e+00    2.522047e+01   -2.754638e-09
   1.274576e-04    5.072010e+06   -5.562394e+00    5.072016e+06    0.000000e+00    1.411390e+05   -1.271183e+02    3.402128e+00    2.522036e+01   -2.754582e-09
   1.282140e-04    5.027183e+06   -5.090180e+00    5.027189e+06    0.000000e+00    1.403057e+05   -1.267433e+02    3.402128e+00    2.522026e+01   -2.754526e-09
   1.289750e-04    4.982751e+06   -6.936103e+00    4.982758e+06    0.000000e+00    1.394775e+05   -1.263693e+02    3.402128e+00    2.522015e+01   -2.754470e-09
   1.297404e-04    4.938710e+06   -9.484674e+00    4.938719e+06    0.000000e+00    1.386541e+05   -1.259965e+02    3.402128e+00    2.522004e+01   -2.754414e-09
   1.305104e-04    4.895064e+06   -6.118818e+00    4.895070e+06    0.000000e+00    1.378355e+05   -1.256248e+02    3.402128e+00    2.521992e+01   -2.754357e-09
   1.312850e-04    4.851801e+06   -5.068816e+00    4.851806e+06    0.000000e+00    1.370218e+05   -1.252541e+02    3.402128e+00    2.521981e+01   -2.754300e-09
   1.320642e-04    4.808919e+06   -6.265689e+00    4.808925e+06    0.000000e+00    1.362129e+05   -1.248846e+02    3.402128e+00    2.521970e+01   -2.754243e-09
   1.328480e-04    4.766413e+06   -9.641359e+00    4.766423e+06    0.000000e+00    1.354087e+05   -1.245161e+02    3.402128e+00    2.521959e+01   -2.754185e-09
   1.336364e-04    4.724289e+06   -6.787963e+00    4.724296e+06    0.000000e+00    1.346093e+05   -1.241488e+02    3.402128e+00    2.521947e+01   -2.754127e-09
   1.344295e-04    4.682536e+06   -5.195670e+00    4.682541e+06    0.000000e+00    1.338147e+05   -1.237825e+02    3.402128e+00    2.521936e+01   -2.754068e-09
   1.352274e-04    4.641150e+06   -5.778126e+00    4.641155e+06    0.000000e+00    1.330247e+05   -1.234173e+02    3.402128e+00    2.521925e+01   -2.754009e-09
   1.360299e-04    4.600127e+06   -8.484005e+00    4.600135e+06    0.000000e+00    1.322393e+05   -1.230532e+02    3.402128e+00    2.521913e+01   -2.753950e-09
   1.368372e-04    4.559470e+06   -7.557474e+00    4.559478e+06    0.000000e+00    1.314586e+05   -1.226902e+02    3.402128e+00    2.521901e+01   -2.753891e-09
   1.376494e-04    4.519174e+06   -5.462661e+00    4.519180e+06    0.000000e+00    1.306825e+05   -1.223282e+02    3.402128e+00    2.521890e+01   -2.753831e-09
   1.384663e-04    4.479232e+06   -5.471013e+00    4.479237e+06    0.000000e+00    1.299110e+05   -1.219673e+02    3.402128e+00    2.521878e+01   -2.753770e-09
   1.392881e-04    4.439640e+06   -7.542079e+00    4.439648e+06    0.000000e+00    1.291441e+05   -1.216075e+02    3.402128e+00    2.521866e+01   -2.753710e-09
   1.401148e-04    4.400400e+06   -8.412027e+00    4.400409e+06    0.000000e+00    1.283816e+05   -1.212487e+02    3.402128e+00    2.521854e+01   -2.753649e-09
   1.409463e-04    4.361510e+06   -5.841960e+00    4.361516e+06    0.000000e+00    1.276237e+05   -1.208910e+02    3.402128e+00    2.521842e+01   -2.753588e-09
   1.417828e-04    4.322961e+06   -5.325983e+00    4.322967e+06    0.000000e+00    1.268702e+05   -1.205344e+02    3.402128e+00    2.521830e+01   -2.753526e-09
   1.426243e-04    4.284751e+06   -6.803648e+00    4.284758e+06    0.000000e+00    1.261212e+05   -1.201788e+02    3.402128e+00    2.521818e+01   -2.753464e-09
   1.434708e-04    4.246878e+06   -9.348771e+00    4.246887e+06    0.000000e+00    1.253766e+05   -1.198242e+02    3.402128e+00    2.521806e+01   -2.753402e-09
   1.443223e-04    4.209345e+06   -6.336469e+00    4.209351e+06    0.000000e+00    1.246364e+05   -1.194707e+02    3.402128e+00    2.521794e+01   -2.753339e-09
   1.451788e-04    4.172141e+06   -5.319459e+00    4.172147e+06    0.000000e+00    1.239005e+05   -1.191182e+02    3.402128e+00    2.521781e+01   -2.753276e-09
   1.460404e-04    4.135264e+06   -6.236843e+00    4.135271e+06    0.000000e+00    1.231690e+05   -1.187668e+02    3.402128e+00    2.521769e+01   -2.753212e-09
   1.469072e-04    4.098712e+06   -9.034414e+00    4.098721e+06    0.000000e+00    1.224419e+05   -1.184164e+02    3.402128e+00    2.521756e+01   -2.753148e-09
   1.477791e-04    4.062487e+06   -6.927301e+00    4.062494e+06    0.000000e+00    1.217190e+05   -1.180671e+02    3.402128e+00    2.521744e+01   -2.753084e-09
   1.486561e-04    4.026581e+06   -5.445615e+00    4.026587e+06    0.000000e+00    1.210003e+05   -1.177188e+02    3.402128e+00    2.521731e+01   -2.753019e-09
   1.495384e-04    3.990991e+06   -5.840200e+00    3.990997e+06    0.000000e+00    1.202859e+05   -1.173715e+02    3.402128e+00    2.521718e+01   -2.752954e-09
   1.504259e-04    3.955714e+06   -8.063394e+00    3.955722e+06    0.000000e+00    1.195758e+05   -1.170252e+02    3.402128e+00    2.521706e+01   -2.752889e-09
   1.513187e-04    3.920751e+06   -7.603186e+00    3.920758e+06    0.000000e+00    1.188698e+05   -1.166799e+02    3.402128e+00    2.521693e+01   -2.752823e-09
   1.522167e-04    3.886098e+06   -5.688494e+00    3.886104e+06    0.000000e+00    1.181680e+05   -1.163357e+02    3.402128e+00    2.521680e+01   -2.752757e-09
   1.531201e-04    3.851750e+06   -5.593549e+00    3.851756e+06    0.000000e+00    1.174703e+05   -1.159925e+02    3.402128e+00    2.521667e+01   -2.752690e-09
   1.540289e-04    3.817703e+06   -7.272018e+00    3.817711e+06    0.000000e+00    1.167767e+05   -1.156503e+02    3.402128e+00    2.521654e+01   -2.752623e-09
   1.549430e-04    3.783958e+06   -8.358104e+00    3.783967e+06    0.000000e+00    1.160873e+05   -1.153091e+02    3.402128e+00    2.521641e+01   -2.752556e-09
   1.558626e-04    3.750515e+06   -6.035808e+00    3.750521e+06    0.000000e+00    1.154019e+05   -1.149690e+02    3.402128e+00    2.521627e+01   -2.752488e-09
   1.567877e-04    3.717365e+06   -5.483382e+00    3.717371e+06    0.000000e+00    1.147205e+05   -1.146298e+02    3.402128e+00    2.521614e+01   -2.752420e-09
   1.577182e-04    3.684506e+06   -6.646642e+00    3.684513e+06    0.000000e+00    1.140432e+05   -1.142916e+02    3.402128e+00    2.521601e+01   -2.752351e-09
   1.586542e-04    3.651937e+06   -9.172632e+00    3.651946e+06    0.000000e+00    1.133698e+05   -1.139544e+02    3.402128e+00    2.521587e+01   -2.752282e-09
   1.595958e-04    3.619660e+06   -6.481306e+00    3.619667e+06    0.000000e+00    1.127004e+05   -1.136182e+02    3.402128e+00    2.521574e+01   -2.752213e-09
   1.605430e-04    3.587667e+06   -5.499123e+00    3.587673e+06    0.000000e+00    1.120350e+05   -1.132831e+02    3.402128e+00    2.521560e+01   -2.752143e-09
   1.614958e-04    3.555955e+06   -6.180999e+00    3.555961e+06    0.000000e+00    1.113735e+05   -1.129489e+02    3.402128e+00    2.521546e+01   -2.752073e-09
   1.624543e-04    3.524522e+06   -8.483278e+00    3.524530e+06    0.000000e+00    1.107159e+05   -1.126156e+02    3.402128e+00    2.521532e+01   -2.752002e-09
   1.634185e-04    3.493370e+06   -7.003021e+00    3.493377e+06    0.000000e+00    1.100622e+05   -1.122834e+02    3.402128e+00    2.521519e+01   -2.751931e-09
   1.643883e-04    3.462493e+06   -5.623055e+00    3.462499e+06    0.000000e+00    1.094124e+05   -1.119522e+02    3.402128e+00    2.521505e+01   -2.751860e-09
   1.653640e-04    3.431887e+06   -5.858663e+00    3.431893e+06    0.000000e+00    1.087664e+05   -1.116219e+02    3.402128e+00    2.521491e+01   -2.751788e-09
   1.663454e-04    3.401551e+06   -7.661977e+00    3.401558e+06    0.000000e+00    1.081241e+05   -1.112926e+02    3.402128e+00    2.521476e+01   -2.751715e-09
   1.673327e-04    3.371484e+06   -7.594256e+00    3.371492e+06    0.000000e+00    1.074857e+05   -1.109642e+02    3.402128e+00    2.521462e+01   -2.751643e-09
   1.683258e-04    3.341685e+06   -5.845145e+00    3.341690e+06    0.000000e+00    1.068511e+05   -1.106369e+02    3.402128e+00    2.521448e+01   -2.751570e-09
   1.693248e-04    3.312147e+06   -5.661538e+00    3.312153e+06    0.000000e+00    1.062202e+05   -1.103105e+02    3.402128e+00    2.521434e+01   -2.751496e-09
   1.703297e-04    3.282869e+06   -6.999865e+00    3.282876e+06    0.000000e+00    1.055930e+05   -1.099851e+02    3.402128e+00    2.521419e+01   -2.751422e-09
   1.713406e-04    3.253849e+06   -8.252938e+00    3.253858e+06    0.000000e+00    1.049695e+05   -1.096606e+02    3.402128e+00    2.521404e+01   -2.751347e-09
   1.723575e-04    3.225090e+06   -6.158733e+00    3.225096e+06    0.000000e+00    1.043497e+05   -1.093371e+02    3.402128e+00    2.521390e+01   -2.751272e-09
   1.733804e-04    3.196583e+06   -5.582787e+00    3.196588e+06    0.000000e+00    1.037335e+05   -1.090146e+02    3.402128e+00    2.521375e+01   -2.751197e-09
   1.744094e-04    3.168326e+06   -6.483050e+00    3.168333e+06    0.000000e+00    1.031210e+05   -1.086929e+02    3.402128e+00    2.521360e+01   -2.751121e-09
   1.754445e-04    3.140318e+06   -8.818081e+00    3.140327e+06    0.000000e+00    1.025121e+05   -1.083723e+02    3.402128e+00    2.521345e+01   -2.751045e-09
   1.764858e-04    3.112561e+06   -6.555101e+00    3.112568e+06    0.000000e+00    1.019068e+05   -1.080526e+02    3.402128e+00    2.521330e+01   -2.750968e-09
   1.775332e-04    3.085049e+06   -5.612020e+00    3.085055e+06    0.000000e+00    1.013051e+05   -1.077338e+02    3.402128e+00    2.521315e+01   -2.750891e-09
   1.785869e-04    3.057778e+06   -6.099419e+00    3.057785e+06    0.000000e+00    1.007069e+05   -1.074160e+02    3.402128e+00    2.521300e+01   -2.750813e-09
   1.796468e-04    3.030747e+06   -7.980783e+00    3.030755e+06    0.000000e+00    1.001122e+05   -1.070991e+02    3.402128e+00    2.521285e+01   -2.750735e-09
   1.807130e-04    3.003958e+06   -7.018974e+00    3.003965e+06    0.000000e+00    9.952108e+04   -1.067832e+02    3.402128e+00    2.521269e+01   -2.750657e-09
   1.817855e-04    2.977406e+06   -5.731845e+00    2.977411e+06    0.000000e+00    9.893341e+04   -1.064682e+02    3.402128e+00    2.521254e+01   -2.750578e-09
   1.828644e-04    2.951087e+06   -5.838367e+00    2.951092e+06    0.000000e+00    9.834922e+04   -1.061541e+02    3.402128e+00    2.521239e+01   -2.750498e-09
   1.839497e-04    2.924999e+06   -7.295521e+00    2.925006e+06    0.000000e+00    9.776847e+04   -1.058409e+02    3.402128e+00    2.521223e+01   -2.750418e-09
   1.850414e-04    2.899142e+06   -7.544665e+00    2.899150e+06    0.000000e+00    9.719115e+04   -1.055286e+02    3.402128e+00    2.521207e+01   -2.750338e-09
   1.861396e-04    2.873517e+06   -5.943379e+00    2.873523e+06    0.000000e+00    9.661723e+04   -1.052173e+02    3.402128e+00    2.521191e+01   -2.750257e-09
   1.872443e-04    2.848116e+06   -5.684576e+00    2.848122e+06    0.000000e+00    9.604670e+04   -1.049070e+02    3.402128e+00    2.521175e+01   -2.750176e-09
   1.883556e-04    2.822938e+06   -6.740134e+00    2.822945e+06    0.000000e+00    9.547954e+04   -1.045975e+02    3.402128e+00    2.521159e+01   -2.750094e-09
   1.894735e-04    2.797983e+06   -8.120754e+00    2.797991e+06    0.000000e+00    9.491572e+04   -1.042889e+02    3.402128e+00    2.521143e+01   -2.750011e-09
   1.905980e-04    2.773251e+06   -6.223262e+00    2.773257e+06    0.000000e+00    9.435523e+04   -1.039812e+02    3.402128e+00    2.521127e+01   -2.749928e-09
   1.917292e-04    2.748737e+06   -5.634282e+00    2.748742e+06    0.000000e+00    9.379805e+04   -1.036745e+02    3.402128e+00    2.521111e+01   -2.749845e-09
   1.928671e-04    2.724438e+06   -6.311387e+00    2.724444e+06    0.000000e+00    9.324416e+04   -1.033686e+02    3.402128e+00    2.521094e+01   -2.749761e-09
   1.940117e-04    2.700352e+06   -8.224973e+00    2.700360e+06    0.000000e+00    9.269353e+04   -1.030637e+02    3.402128e+00    2.521078e+01   -2.749677e-09
   1.951632e-04    2.676483e+06   -6.575093e+00    2.676489e+06    0.000000e+00    9.214615e+04   -1.027597e+02    3.402128e+00    2.521061e+01   -2.749592e-09
   1.963215e-04    2.652824e+06   -5.670291e+00    2.652829e+06    0.000000e+00    9.160200e+04   -1.024565e+02    3.402128e+00    2.521045e+01   -2.749507e-09
   1.974866e-04    2.629372e+06   -5.997359e+00    2.629378e+06    0.000000e+00    9.106106e+04   -1.021543e+02    3.402128e+00    2.521028e+01   -2.749421e-09
   1.986587e-04    2.606127e+06   -7.521801e+00    2.606135e+06    0.000000e+00    9.052331e+04   -1.018529e+02    3.402128e+00    2.521011e+01   -2.749335e-09
   1.998377e-04    2.583089e+06   -6.987223e+00    2.583096e+06    0.000000e+00    8.998874e+04   -1.015524e+02    3.402128e+00    2.520994e+01   -2.749248e-09
   2.010238e-04    2.560256e+06   -5.789800e+00    2.560262e+06    0.000000e+00    8.945731e+04   -1.012529e+02    3.402128e+00    2.520977e+01   -2.749161e-09
   2.022168e-04    2.537623e+06   -5.787056e+00    2.537629e+06    0.000000e+00    8.892903e+04   -1.009542e+02    3.402128e+00    2.520960e+01   -2.749073e-09
   2.034170e-04    2.515189e+06   -6.945979e+00    2.515196e+06    0.000000e+00    8.840386e+04   -1.006563e+02    3.402128e+00    2.520943e+01   -2.748984e-09
   2.046242e-04    2.492954e+06   -7.452222e+00    2.492961e+06    0.000000e+00    8.788179e+04   -1.003594e+02    3.402128e+00    2.520925e+01   -2.748895e-09
