# All units in Hartree [AU] if not specified
# Convergence: Err(φ)=4.051e-11, Err(n_e)=9.328e-11, Err(IET)=4.621e+01, Q_net=-3.102e-07
# {"name":"Ar", "Z":18, "Zstar":0.10876189959224547, "A":39.948,  "μ[AU]": -2.5628343787e-02, "Te[AU]": 1.813e-03, "Ti[AU]": 1.813e-03, "rs[AU]": 1.372e+01 }
   r[AU]           U_ei[AU]        U_ii[AU]        g_ii            
   6.857824e-02   -1.401702e-01    3.343802e-01    0.000000e+00
   1.371565e-01   -1.032805e-01    1.484220e-01    0.000000e+00
   2.057347e-01   -8.630091e-02    1.032090e-01    0.000000e+00
   2.743130e-01   -7.637531e-02    7.474499e-02    0.000000e+00
   3.428912e-01   -6.975952e-02    6.306066e-02    0.000000e+00
   4.114694e-01   -6.484784e-02    5.288853e-02    0.000000e+00
   4.800477e-01   -6.143950e-02    4.810354e-02    0.000000e+00
   5.486259e-01   -5.851181e-02    4.316740e-02    0.000000e+00
   6.172042e-01   -5.606568e-02    4.071455e-02    0.000000e+00
   6.857824e-01   -5.407262e-02    3.786964e-02    0.000000e+00
   7.543606e-01   -5.239164e-02    3.641548e-02    7.143227e-01
   8.229389e-01   -5.095021e-02    3.457764e-02    1.709989e+00
   8.915171e-01   -4.969369e-02    3.362039e-02    2.218533e+00
   9.600953e-01   -4.860706e-02    3.233293e-02    2.907930e+00
   1.028674e+00   -4.763955e-02    3.165165e-02    3.261575e+00
   1.097252e+00   -4.677921e-02    3.069450e-02    3.766077e+00
   1.165830e+00   -4.600321e-02    3.018025e-02    4.024902e+00
   1.234408e+00   -4.530039e-02    2.943618e-02    4.409174e+00
   1.302987e+00   -4.465802e-02    2.903020e-02    4.605580e+00
   1.371565e+00   -4.406815e-02    2.843155e-02    4.906937e+00
   1.440143e+00   -4.352305e-02    2.809972e-02    5.059752e+00
   1.508721e+00   -4.301560e-02    2.760483e-02    5.301179e+00
   1.577299e+00   -4.254071e-02    2.732602e-02    5.422063e+00
   1.645878e+00   -4.209648e-02    2.690782e-02    5.618507e+00
   1.714456e+00   -4.167722e-02    2.666822e-02    5.715079e+00
   1.783034e+00   -4.127744e-02    2.630830e-02    5.876706e+00
   1.851612e+00   -4.089934e-02    2.609850e-02    5.954178e+00
   1.920191e+00   -4.053673e-02    2.578386e-02    6.088169e+00
   1.988769e+00   -4.018953e-02    2.559718e-02    6.150243e+00
   2.057347e+00   -3.985414e-02    2.531836e-02    6.261829e+00
   2.125925e+00   -3.953061e-02    2.514990e-02    6.311224e+00
   2.194504e+00   -3.921697e-02    2.489986e-02    6.404318e+00
   2.263082e+00   -3.890986e-02    2.474594e-02    6.443080e+00
   2.331660e+00   -3.861172e-02    2.451928e-02    6.520674e+00
   2.400238e+00   -3.832014e-02    2.437708e-02    6.550382e+00
   2.468817e+00   -3.803231e-02    2.416962e-02    6.614809e+00
   2.537395e+00   -3.774746e-02    2.403693e-02    6.636701e+00
   2.605973e+00   -3.746602e-02    2.384535e-02    6.689809e+00
   2.674551e+00   -3.718677e-02    2.372043e-02    6.704876e+00
   2.743130e+00   -3.690832e-02    2.354209e-02    6.748152e+00
   2.811708e+00   -3.662940e-02    2.342353e-02    6.757196e+00
   2.880286e+00   -3.634902e-02    2.325628e-02    6.791850e+00
   2.948864e+00   -3.606604e-02    2.314292e-02    6.795531e+00
   3.017443e+00   -3.577975e-02    2.298501e-02    6.822559e+00
   3.086021e+00   -3.548853e-02    2.287592e-02    6.821425e+00
   3.154599e+00   -3.519016e-02    2.272589e-02    6.841659e+00
   3.223177e+00   -3.488392e-02    2.262029e-02    6.836170e+00
   3.291755e+00   -3.456781e-02    2.247693e-02    6.850307e+00
   3.360334e+00   -3.424234e-02    2.237417e-02    6.840855e+00
   3.428912e+00   -3.390310e-02    2.223646e-02    6.849488e+00
   3.497490e+00   -3.355051e-02    2.213598e-02    6.836407e+00
   3.566068e+00   -3.318197e-02    2.200308e-02    6.840043e+00
   3.634647e+00   -3.279753e-02    2.190442e-02    6.823623e+00
   3.703225e+00   -3.239431e-02    2.177558e-02    6.822700e+00
   3.771803e+00   -3.197211e-02    2.167834e-02    6.803194e+00
   3.840381e+00   -3.153215e-02    2.155294e-02    6.798092e+00
   3.908960e+00   -3.107185e-02    2.145679e-02    6.775723e+00
   3.977538e+00   -5.093608e-02    2.133429e-02    6.766774e+00
   4.046116e+00   -5.048706e-02    2.123894e-02    6.741739e+00
   4.114694e+00   -5.005289e-02    2.111888e-02    6.729237e+00
   4.183273e+00   -4.963278e-02    2.102408e-02    6.701711e+00
   4.251851e+00   -4.922600e-02    2.090605e-02    6.685918e+00
   4.320429e+00   -4.883225e-02    2.081158e-02    6.656061e+00
   4.389007e+00   -4.845068e-02    2.069524e-02    6.637209e+00
   4.457586e+00   -4.808082e-02    2.060091e-02    6.605163e+00
   4.526164e+00   -4.772298e-02    2.048594e-02    6.583461e+00
   4.594742e+00   -4.737554e-02    2.039160e-02    6.549358e+00
   4.663320e+00   -4.703835e-02    2.027775e-02    6.524996e+00
   4.731898e+00   -4.671074e-02    2.018324e-02    6.488956e+00
   4.800477e+00   -4.639256e-02    2.007026e-02    6.462105e+00
   4.869055e+00   -4.608303e-02    1.997547e-02    6.424239e+00
   4.937633e+00   -4.578236e-02    1.986317e-02    6.395058e+00
   5.006211e+00   -4.548971e-02    1.976799e-02    6.355470e+00
   5.074790e+00   -4.520478e-02    1.965617e-02    6.324102e+00
   5.143368e+00   -4.492765e-02    1.956050e-02    6.282888e+00
   5.211946e+00   -4.465771e-02    1.944902e-02    6.249468e+00
   5.280524e+00   -4.439516e-02    1.935279e-02    6.206719e+00
   5.349103e+00   -4.413938e-02    1.924149e-02    6.171370e+00
   5.417681e+00   -4.389004e-02    1.914462e-02    6.127171e+00
   5.486259e+00   -4.364702e-02    1.903339e-02    6.090010e+00
   5.554837e+00   -4.340993e-02    1.893582e-02    6.044442e+00
   5.623416e+00   -4.317857e-02    1.882454e-02    6.005577e+00
   5.691994e+00   -4.295273e-02    1.872622e-02    5.958718e+00
   5.760572e+00   -4.273224e-02    1.861481e-02    5.918251e+00
   5.829150e+00   -4.251689e-02    1.851569e-02    5.870174e+00
   5.897729e+00   -4.230652e-02    1.840405e-02    5.828201e+00
   5.966307e+00   -4.210095e-02    1.830410e-02    5.778978e+00
   6.034885e+00   -4.190002e-02    1.819215e-02    5.735591e+00
   6.103463e+00   -4.170356e-02    1.809134e-02    5.685289e+00
   6.172042e+00   -4.151143e-02    1.797902e-02    5.640575e+00
   6.240620e+00   -4.132355e-02    1.787731e-02    5.589260e+00
   6.309198e+00   -4.113979e-02    1.776457e-02    5.543302e+00
   6.377776e+00   -4.096013e-02    1.766195e-02    5.491038e+00
   6.446354e+00   -4.078448e-02    1.754873e-02    5.443915e+00
   6.514933e+00   -4.061245e-02    1.744518e-02    5.390764e+00
   6.583511e+00   -4.044396e-02    1.733144e-02    5.342552e+00
   6.652089e+00   -4.027909e-02    1.722695e-02    5.288575e+00
   6.720667e+00   -4.011749e-02    1.711265e-02    5.239348e+00
   6.789246e+00   -3.995906e-02    1.700720e-02    5.184602e+00
   6.857824e+00   -3.980383e-02    1.689232e-02    5.134431e+00
   6.926402e+00   -3.965173e-02    1.678591e-02    5.078974e+00
   6.994980e+00   -3.950249e-02    1.667042e-02    5.027927e+00
   7.063559e+00   -3.935616e-02    1.656305e-02    4.971814e+00
   7.132137e+00   -3.921271e-02    1.644692e-02    4.919959e+00
   7.200715e+00   -3.907183e-02    1.633858e-02    4.863246e+00
   7.269293e+00   -3.893374e-02    1.622180e-02    4.810645e+00
   7.337872e+00   -3.879816e-02    1.611250e-02    4.753386e+00
   7.406450e+00   -3.866502e-02    1.599506e-02    4.700103e+00
   7.475028e+00   -3.853444e-02    1.588480e-02    4.642349e+00
   7.543606e+00   -3.840604e-02    1.576668e-02    4.588446e+00
   7.612185e+00   -3.828016e-02    1.565548e-02    4.530250e+00
   7.680763e+00   -3.815630e-02    1.553667e-02    4.475785e+00
   7.749341e+00   -3.803484e-02    1.542453e-02    4.417197e+00
   7.817919e+00   -3.791529e-02    1.530504e-02    4.362229e+00
   7.886497e+00   -3.779802e-02    1.519197e-02    4.303300e+00
   7.955076e+00   -3.768257e-02    1.507179e-02    4.247885e+00
   8.023654e+00   -3.756926e-02    1.495780e-02    4.188665e+00
   8.092232e+00   -3.745784e-02    1.483694e-02    4.132858e+00
   8.160810e+00   -3.734850e-02    1.472205e-02    4.073394e+00
   8.229389e+00   -3.724098e-02    1.460050e-02    4.017251e+00
   8.297967e+00   -3.713514e-02    1.448473e-02    3.957592e+00
   8.366545e+00   -3.703118e-02    1.436251e-02    3.901165e+00
   8.435123e+00   -3.692877e-02    1.424587e-02    3.841357e+00
   8.503702e+00   -3.682807e-02    1.412298e-02    3.784699e+00
   8.572280e+00   -3.672899e-02    1.400549e-02    3.724789e+00
   8.640858e+00   -3.663137e-02    1.388195e-02    3.667951e+00
   8.709436e+00   -3.653541e-02    1.376363e-02    3.607984e+00
   8.778015e+00   -3.644091e-02    1.363945e-02    3.551016e+00
   8.846593e+00   -3.634778e-02    1.352032e-02    3.491039e+00
   8.915171e+00   -3.625618e-02    1.339551e-02    3.433990e+00
   8.983749e+00   -3.616597e-02    1.327560e-02    3.374046e+00
   9.052328e+00   -3.607706e-02    1.315018e-02    3.316965e+00
   9.120906e+00   -3.598946e-02    1.302950e-02    3.257098e+00
   9.189484e+00   -3.590327e-02    1.290348e-02    3.200032e+00
   9.258062e+00   -3.581831e-02    1.278207e-02    3.140286e+00
   9.326640e+00   -3.573454e-02    1.265547e-02    3.083281e+00
   9.395219e+00   -3.565199e-02    1.253335e-02    3.023699e+00
   9.463797e+00   -3.557073e-02    1.240619e-02    2.966801e+00
   9.532375e+00   -3.549059e-02    1.228338e-02    2.907424e+00
   9.600953e+00   -3.541155e-02    1.215568e-02    2.850679e+00
   9.669532e+00   -3.533360e-02    1.203222e-02    2.791547e+00
   9.738110e+00   -3.525681e-02    1.190400e-02    2.734998e+00
   9.806688e+00   -3.518111e-02    1.177991e-02    2.676154e+00
   9.875266e+00   -3.510644e-02    1.165120e-02    2.619845e+00
   9.943845e+00   -3.503277e-02    1.152650e-02    2.561327e+00
   1.001242e+01   -3.496009e-02    1.139732e-02    2.505300e+00
   1.008100e+01   -3.488837e-02    1.127205e-02    2.447149e+00
   1.014958e+01   -3.481769e-02    1.114243e-02    2.391444e+00
   1.021816e+01   -3.474796e-02    1.101662e-02    2.333697e+00
   1.028674e+01   -3.467915e-02    1.088657e-02    2.278357e+00
   1.035531e+01   -3.461123e-02    1.076025e-02    2.221051e+00
   1.042389e+01   -3.454419e-02    1.062982e-02    2.166114e+00
   1.049247e+01   -3.447802e-02    1.050301e-02    2.109287e+00
   1.056105e+01   -3.441269e-02    1.037222e-02    2.054792e+00
   1.062963e+01   -3.434821e-02    1.024497e-02    1.998480e+00
   1.069821e+01   -3.428455e-02    1.011384e-02    1.944463e+00
   1.076678e+01   -3.422174e-02    9.986171e-03    1.888701e+00
   1.083536e+01   -3.415972e-02    9.854735e-03    1.835201e+00
   1.090394e+01   -3.409847e-02    9.726690e-03    1.780023e+00
   1.097252e+01   -3.403798e-02    9.594979e-03    1.727075e+00
   1.104110e+01   -3.397827e-02    9.466588e-03    1.672515e+00
   1.110967e+01   -3.391937e-02    9.334634e-03    1.620153e+00
   1.117825e+01   -3.386123e-02    9.205931e-03    1.566244e+00
   1.124683e+01   -3.380378e-02    9.073765e-03    1.514503e+00
   1.131541e+01   -3.374703e-02    8.944786e-03    1.461276e+00
   1.138399e+01   -3.369097e-02    8.812441e-03    1.410189e+00
   1.145257e+01   -3.363557e-02    8.683220e-03    1.357675e+00
   1.152114e+01   -3.358083e-02    8.550728e-03    1.307275e+00
   1.158972e+01   -3.352673e-02    8.421302e-03    1.255505e+00
   1.165830e+01   -3.347327e-02    8.288697e-03    1.205822e+00
   1.172688e+01   -3.342043e-02    8.159102e-03    1.154825e+00
   1.179546e+01   -3.336820e-02    8.026417e-03    1.105890e+00
   1.186404e+01   -3.331658e-02    7.896689e-03    1.055694e+00
   1.193261e+01   -3.326554e-02    7.763959e-03    1.007536e+00
   1.200119e+01   -3.321509e-02    7.634135e-03    9.581692e-01
   1.206977e+01   -3.316521e-02    7.501394e-03    9.108174e-01
   1.213835e+01   -3.311589e-02    7.371511e-03    8.623062e-01
   1.220693e+01   -3.306712e-02    7.238794e-03    8.157877e-01
   1.227550e+01   -3.301889e-02    7.108890e-03    7.681581e-01
   1.234408e+01   -3.297119e-02    6.976232e-03    7.224995e-01
   1.241266e+01   -3.292401e-02    6.846344e-03    6.757765e-01
   1.248124e+01   -3.287735e-02    6.713781e-03    6.310033e-01
   1.254982e+01   -3.283120e-02    6.583945e-03    5.852110e-01
   1.261840e+01   -3.278558e-02    6.451513e-03    5.413480e-01
   1.268697e+01   -3.274046e-02    6.321769e-03    4.965094e-01
   1.275555e+01   -3.269581e-02    6.189503e-03    4.535804e-01
   1.282413e+01   -3.265163e-02    6.059888e-03    4.097178e-01
   1.289271e+01   -3.260792e-02    5.927824e-03    3.677454e-01
   1.296129e+01   -3.256466e-02    5.798376e-03    3.248801e-01
   1.302987e+01   -3.252186e-02    5.666551e-03    2.838861e-01
   1.309844e+01   -3.247949e-02    5.537307e-03    2.420384e-01
   1.316702e+01   -3.243755e-02    5.405757e-03    2.020436e-01
   1.323560e+01   -3.239605e-02    5.276757e-03    1.612331e-01
   1.330418e+01   -3.235502e-02    5.145518e-03    1.222573e-01
   1.337276e+01   -3.231441e-02    5.016798e-03    8.250230e-02
   1.344133e+01   -3.227420e-02    4.885908e-03    4.456442e-02
   1.350991e+01   -3.223438e-02    4.757507e-03    5.882474e-03
   1.357849e+01   -3.219496e-02    4.627001e-03    0.000000e+00
   1.364707e+01   -3.215592e-02    4.498957e-03    0.000000e+00
   1.371565e+01   -7.929768e-03    4.368872e-03    0.000000e+00
   1.378423e+01   -7.890316e-03    4.241223e-03    0.000000e+00
   1.385280e+01   -7.851255e-03    4.111596e-03    0.000000e+00
   1.392138e+01   -7.812579e-03    3.984379e-03    0.000000e+00
   1.398996e+01   -7.774282e-03    3.855247e-03    0.000000e+00
   1.405854e+01   -7.736359e-03    3.728500e-03    0.000000e+00
   1.412712e+01   -7.698804e-03    3.599898e-03    0.000000e+00
   1.419570e+01   -7.661611e-03    3.473660e-03    0.000000e+00
   1.426427e+01   -7.624777e-03    3.345626e-03    0.000000e+00
   1.433285e+01   -7.588294e-03    3.219933e-03    0.000000e+00
   1.440143e+01   -7.552160e-03    3.092502e-03    0.000000e+00
   1.447001e+01   -7.516367e-03    2.967393e-03    0.000000e+00
   1.453859e+01   -7.480913e-03    2.840602e-03    0.000000e+00
   1.460716e+01   -7.445791e-03    2.716114e-03    0.000000e+00
   1.467574e+01   -7.410998e-03    2.589999e-03    0.000000e+00
   1.474432e+01   -7.376528e-03    2.466169e-03    0.000000e+00
   1.481290e+01   -7.342377e-03    2.340766e-03    0.000000e+00
   1.488148e+01   -7.308542e-03    2.217631e-03    0.000000e+00
   1.495006e+01   -7.275016e-03    2.092976e-03    0.000000e+00
   1.501863e+01   -7.241797e-03    1.970573e-03    0.000000e+00
   1.508721e+01   -7.208880e-03    1.846702e-03    0.000000e+00
   1.515579e+01   -7.176260e-03    1.725067e-03    0.000000e+00
   1.522437e+01   -7.143935e-03    1.602016e-03    0.000000e+00
   1.529295e+01   -7.111899e-03    1.481185e-03    0.000000e+00
   1.536153e+01   -7.080150e-03    1.358988e-03    0.000000e+00
   1.543010e+01   -7.048682e-03    1.238998e-03    0.000000e+00
   1.549868e+01   -7.017493e-03    1.117691e-03    0.000000e+00
   1.556726e+01   -6.986579e-03    9.985771e-04    0.000000e+00
   1.563584e+01   -6.955937e-03    8.781950e-04    0.000000e+00
   1.570442e+01   -6.925561e-03    7.599926e-04    0.000000e+00
   1.577299e+01   -6.895450e-03    6.405694e-04    0.000000e+00
   1.584157e+01   -6.865600e-03    5.233138e-04    0.000000e+00
   1.591015e+01   -6.836007e-03    4.048837e-04    0.000000e+00
   1.597873e+01   -6.806667e-03    2.886096e-04    0.000000e+00
   1.604731e+01   -6.777579e-03    1.712064e-04    0.000000e+00
   1.611589e+01   -6.748738e-03    5.594799e-05    0.000000e+00
   1.618446e+01   -6.720142e-03   -6.039492e-05    0.000000e+00
   1.625304e+01   -6.691787e-03   -1.746035e-04    0.000000e+00
   1.632162e+01   -6.663670e-03   -2.898531e-04    0.000000e+00
   1.639020e+01   -6.635789e-03   -4.029785e-04    0.000000e+00
   1.645878e+01   -6.608140e-03   -5.171021e-04    0.000000e+00
   1.652736e+01   -6.580720e-03   -6.291111e-04    0.000000e+00
   1.659593e+01   -6.553527e-03   -7.420766e-04    0.000000e+00
   1.666451e+01   -6.526558e-03   -8.529366e-04    0.000000e+00
   1.673309e+01   -6.499810e-03   -9.647121e-04    0.000000e+00
   1.680167e+01   -6.473280e-03   -1.074391e-03    0.000000e+00
   1.687025e+01   -6.446966e-03   -1.184945e-03    0.000000e+00
   1.693883e+01   -6.420864e-03   -1.293412e-03    0.000000e+00
   1.700740e+01   -6.394974e-03   -1.402714e-03    0.000000e+00
   1.707598e+01   -6.369291e-03   -1.509936e-03    0.000000e+00
   1.714456e+01   -6.343814e-03   -1.617956e-03    0.000000e+00
   1.721314e+01   -6.318540e-03   -1.723904e-03    0.000000e+00
   1.728172e+01   -6.293466e-03   -1.830611e-03    0.000000e+00
   1.735029e+01   -6.268591e-03   -1.935254e-03    0.000000e+00
   1.741887e+01   -6.243912e-03   -2.040621e-03    0.000000e+00
   1.748745e+01   -6.219426e-03   -2.143930e-03    0.000000e+00
   1.755603e+01   -6.195131e-03   -2.247926e-03    0.000000e+00
   1.762461e+01   -6.171025e-03   -2.349872e-03    0.000000e+00
   1.769319e+01   -6.147107e-03   -2.452470e-03    0.000000e+00
   1.776176e+01   -6.123373e-03   -2.553024e-03    0.000000e+00
   1.783034e+01   -6.099821e-03   -2.654197e-03    0.000000e+00
   1.789892e+01   -6.076450e-03   -2.753332e-03    0.000000e+00
   1.796750e+01   -6.053258e-03   -2.853051e-03    0.000000e+00
   1.803608e+01   -6.030242e-03   -2.950741e-03    0.000000e+00
   1.810466e+01   -6.007400e-03   -3.048980e-03    0.000000e+00
   1.817323e+01   -5.984730e-03   -3.145196e-03    0.000000e+00
   1.824181e+01   -5.962231e-03   -3.241931e-03    0.000000e+00
   1.831039e+01   -5.939901e-03   -3.336648e-03    0.000000e+00
   1.837897e+01   -5.917737e-03   -3.431851e-03    0.000000e+00
   1.844755e+01   -5.895738e-03   -3.525043e-03    0.000000e+00
   1.851612e+01   -5.873902e-03   -3.618690e-03    0.000000e+00
   1.858470e+01   -5.852227e-03   -3.710332e-03    0.000000e+00
   1.865328e+01   -5.830711e-03   -3.802399e-03    0.000000e+00
   1.872186e+01   -5.809354e-03   -3.892466e-03    0.000000e+00
   1.879044e+01   -5.788152e-03   -3.982929e-03    0.000000e+00
   1.885902e+01   -5.767104e-03   -4.071398e-03    0.000000e+00
   1.892759e+01   -5.746208e-03   -4.160234e-03    0.000000e+00
   1.899617e+01   -5.725464e-03   -4.247081e-03    0.000000e+00
   1.906475e+01   -5.704869e-03   -4.334267e-03    0.000000e+00
   1.913333e+01   -5.684421e-03   -4.419469e-03    0.000000e+00
   1.920191e+01   -5.664120e-03   -4.504984e-03    0.000000e+00
   1.927049e+01   -5.643963e-03   -4.588520e-03    0.000000e+00
   1.933906e+01   -5.623949e-03   -4.672341e-03    0.000000e+00
   1.940764e+01   -5.604076e-03   -4.754190e-03    0.000000e+00
   1.947622e+01   -5.584343e-03   -4.836297e-03    0.000000e+00
   1.954480e+01   -5.564749e-03   -4.916438e-03    0.000000e+00
   1.961338e+01   -5.545292e-03   -4.996811e-03    0.000000e+00
   1.968195e+01   -5.525970e-03   -5.075223e-03    0.000000e+00
   1.975053e+01   -5.506783e-03   -5.153844e-03    0.000000e+00
   1.981911e+01   -5.487728e-03   -5.230508e-03    0.000000e+00
   1.988769e+01   -5.468805e-03   -5.307357e-03    0.000000e+00
   1.995627e+01   -5.450012e-03   -5.382256e-03    0.000000e+00
   2.002485e+01   -5.431348e-03   -5.457315e-03    0.000000e+00
   2.009342e+01   -5.412811e-03   -5.530430e-03    0.000000e+00
   2.016200e+01   -5.394400e-03   -5.603682e-03    0.000000e+00
   2.023058e+01   -5.376114e-03   -5.674996e-03    0.000000e+00
   2.029916e+01   -5.357951e-03   -5.746425e-03    0.000000e+00
   2.036774e+01   -5.339911e-03   -5.815921e-03    0.000000e+00
   2.043632e+01   -5.321992e-03   -5.885512e-03    0.000000e+00
   2.050489e+01   -5.304192e-03   -5.953174e-03    0.000000e+00
   2.057347e+01   -5.286512e-03   -6.020911e-03    0.000000e+00
   2.064205e+01   -5.268949e-03   -6.086726e-03    0.000000e+00
   2.071063e+01   -5.251502e-03   -6.152594e-03    0.000000e+00
   2.077921e+01   -5.234170e-03   -6.216547e-03    0.000000e+00
   2.084778e+01   -5.216952e-03   -6.280533e-03    0.000000e+00
   2.091636e+01   -5.199848e-03   -6.342610e-03    0.000000e+00
   2.098494e+01   -5.182855e-03   -6.404702e-03    0.000000e+00
