# All units in Hartree [AU] if not specified
# Convergence: Err(φ)=4.177e-11, Err(n_e)=8.988e-11, Err(IET)=9.971e-13, Q_net=-2.909e-07
# {"name":"Ar", "Z":18, "Zstar":0.15642263309089444, "A":39.948,  "μ[AU]": -2.2745974687e-02, "Te[AU]": 1.354e-03, "Ti[AU]": 1.354e-03, "rs[AU]": 1.372e+01 }
   r[AU]           n[AU]           nf[AU]          nb[AU]          n_ion[AU]       φtot[AU]        δVxc/δρ[Au]     U_ei[AU]        U_ii[AU]        g_ii            
   1.000000e-04    7.298701e+06    7.746235e+00    7.298694e+06    0.000000e+00    1.799152e+05   -1.434897e+02   -1.731677e+01    1.079236e+00   -5.745823e-14
   1.005935e-04    7.234202e+06    9.798483e+00    7.234192e+06    0.000000e+00    1.788532e+05   -1.430664e+02   -2.037313e+01    1.079232e+00   -5.745731e-14
   1.011905e-04    7.170263e+06    2.961996e+00    7.170260e+06    0.000000e+00    1.777975e+05   -1.426442e+02   -8.860865e+00    1.079229e+00   -5.745639e-14
   1.017911e-04    7.106903e+06    1.031165e+01    7.106893e+06    0.000000e+00    1.767480e+05   -1.422234e+02   -2.110401e+01    1.079226e+00   -5.745547e-14
   1.023952e-04    7.044090e+06    4.925225e+00    7.044086e+06    0.000000e+00    1.757047e+05   -1.418037e+02   -1.264307e+01    1.079223e+00   -5.745454e-14
   1.030029e-04    6.981842e+06    8.643917e+00    6.981833e+06    0.000000e+00    1.746676e+05   -1.413854e+02   -1.868181e+01    1.079219e+00   -5.745361e-14
   1.036142e-04    6.920140e+06    8.509934e+00    6.920131e+06    0.000000e+00    1.736366e+05   -1.409682e+02   -1.848137e+01    1.079216e+00   -5.745267e-14
   1.042292e-04    6.858979e+06    4.906783e+00    6.858974e+06    0.000000e+00    1.726116e+05   -1.405523e+02   -1.260994e+01    1.079213e+00   -5.745172e-14
   1.048478e-04    6.798367e+06    9.867509e+00    6.798358e+06    0.000000e+00    1.715927e+05   -1.401376e+02   -2.047257e+01    1.079209e+00   -5.745077e-14
   1.054700e-04    6.738279e+06    2.688547e+00    6.738277e+06    0.000000e+00    1.705798e+05   -1.397241e+02   -8.278311e+00    1.079206e+00   -5.744981e-14
   1.060960e-04    6.678736e+06    9.109137e+00    6.678726e+06    0.000000e+00    1.695729e+05   -1.393119e+02   -1.937144e+01    1.079202e+00   -5.744885e-14
   1.067257e-04    6.619709e+06    6.980914e+00    6.619702e+06    0.000000e+00    1.685720e+05   -1.389008e+02   -1.611214e+01    1.079199e+00   -5.744788e-14
   1.073591e-04    6.561206e+06    6.342224e+00    6.561200e+06    0.000000e+00    1.675769e+05   -1.384910e+02   -1.507417e+01    1.079195e+00   -5.744691e-14
   1.079962e-04    6.503224e+06    9.113560e+00    6.503215e+06    0.000000e+00    1.665877e+05   -1.380824e+02   -1.937789e+01    1.079192e+00   -5.744593e-14
   1.086372e-04    6.445743e+06    1.670509e+00    6.445741e+06    0.000000e+00    1.656044e+05   -1.376750e+02   -5.917854e+00    1.079188e+00   -5.744494e-14
   1.092819e-04    6.388785e+06    9.193585e+00    6.388776e+06    0.000000e+00    1.646268e+05   -1.372688e+02   -1.949539e+01    1.079185e+00   -5.744395e-14
   1.099305e-04    6.332319e+06    5.250370e+00    6.332314e+06    0.000000e+00    1.636550e+05   -1.368638e+02   -1.321871e+01    1.079181e+00   -5.744296e-14
   1.105830e-04    6.276358e+06    7.324459e+00    6.276351e+06    0.000000e+00    1.626890e+05   -1.364600e+02   -1.665751e+01    1.079178e+00   -5.744195e-14
   1.112393e-04    6.220891e+06    8.092925e+00    6.220883e+06    0.000000e+00    1.617286e+05   -1.360574e+02   -1.784904e+01    1.079174e+00   -5.744094e-14
   1.118995e-04    6.165908e+06    3.606123e+00    6.165904e+06    0.000000e+00    1.607739e+05   -1.356559e+02   -1.017039e+01    1.079171e+00   -5.743993e-14
   1.125636e-04    6.111420e+06    8.944588e+00    6.111411e+06    0.000000e+00    1.598249e+05   -1.352557e+02   -1.912911e+01    1.079167e+00   -5.743891e-14
   1.132316e-04    6.057403e+06    3.353637e+00    6.057400e+06    0.000000e+00    1.588814e+05   -1.348566e+02   -9.666823e+00    1.079163e+00   -5.743788e-14
   1.139037e-04    6.003874e+06    7.905033e+00    6.003866e+06    0.000000e+00    1.579435e+05   -1.344588e+02   -1.756175e+01    1.079160e+00   -5.743685e-14
   1.145797e-04    5.950812e+06    6.844898e+00    5.950805e+06    0.000000e+00    1.570112e+05   -1.340621e+02   -1.589380e+01    1.079156e+00   -5.743581e-14
   1.152597e-04    5.898218e+06    5.070541e+00    5.898213e+06    0.000000e+00    1.560843e+05   -1.336665e+02   -1.290154e+01    1.079152e+00   -5.743476e-14
   1.159437e-04    5.846094e+06    8.405424e+00    5.846086e+06    0.000000e+00    1.551629e+05   -1.332722e+02   -1.832391e+01    1.079149e+00   -5.743371e-14
   1.166319e-04    5.794420e+06    1.322711e+00    5.794419e+06    0.000000e+00    1.542470e+05   -1.328789e+02   -5.014452e+00    1.079145e+00   -5.743265e-14
   1.173241e-04    5.743217e+06    8.131224e+00    5.743209e+06    0.000000e+00    1.533365e+05   -1.324869e+02   -1.790795e+01    1.079141e+00   -5.743159e-14
   1.180204e-04    5.692456e+06    5.405226e+00    5.692451e+06    0.000000e+00    1.524313e+05   -1.320960e+02   -1.348866e+01    1.079137e+00   -5.743052e-14
   1.187208e-04    5.642148e+06    6.115054e+00    5.642142e+06    0.000000e+00    1.515314e+05   -1.317063e+02   -1.469666e+01    1.079133e+00   -5.742944e-14
   1.194254e-04    5.592285e+06    7.615609e+00    5.592277e+06    0.000000e+00    1.506369e+05   -1.313177e+02   -1.711338e+01    1.079130e+00   -5.742836e-14
   1.201342e-04    5.542855e+06    2.446503e+00    5.542853e+06    0.000000e+00    1.497477e+05   -1.309303e+02   -7.746940e+00    1.079126e+00   -5.742727e-14
   1.208472e-04    5.493873e+06    8.046344e+00    5.493865e+06    0.000000e+00    1.488637e+05   -1.305440e+02   -1.777816e+01    1.079122e+00   -5.742617e-14
   1.215644e-04    5.445315e+06    3.806365e+00    5.445311e+06    0.000000e+00    1.479849e+05   -1.301588e+02   -1.056237e+01    1.079118e+00   -5.742507e-14
   1.222859e-04    5.397192e+06    6.786780e+00    5.397185e+06    0.000000e+00    1.471113e+05   -1.297748e+02   -1.580012e+01    1.079114e+00   -5.742396e-14
   1.230117e-04    5.349491e+06    6.611175e+00    5.349485e+06    0.000000e+00    1.462429e+05   -1.293920e+02   -1.551536e+01    1.079110e+00   -5.742285e-14
   1.237417e-04    5.302210e+06    3.923230e+00    5.302206e+06    0.000000e+00    1.453795e+05   -1.290102e+02   -1.078804e+01    1.079106e+00   -5.742172e-14
   1.244761e-04    5.255353e+06    7.690014e+00    5.255345e+06    0.000000e+00    1.445213e+05   -1.286296e+02   -1.722966e+01    1.079102e+00   -5.742060e-14
   1.252149e-04    5.208900e+06    2.077727e+00    5.208898e+06    0.000000e+00    1.436681e+05   -1.282500e+02   -6.904450e+00    1.079098e+00   -5.741946e-14
   1.259580e-04    5.162868e+06    7.128953e+00    5.162861e+06    0.000000e+00    1.428200e+05   -1.278717e+02   -1.634762e+01    1.079094e+00   -5.741832e-14
   1.267056e-04    5.117237e+06    5.424919e+00    5.117231e+06    0.000000e+00    1.419769e+05   -1.274944e+02   -1.352310e+01    1.079090e+00   -5.741717e-14
   1.274576e-04    5.072010e+06    5.011141e+00    5.072005e+06    0.000000e+00    1.411387e+05   -1.271183e+02   -1.279674e+01    1.079086e+00   -5.741601e-14
   1.282140e-04    5.027185e+06    7.098439e+00    5.027178e+06    0.000000e+00    1.403055e+05   -1.267433e+02   -1.629949e+01    1.079082e+00   -5.741485e-14
   1.289750e-04    4.982748e+06    1.416885e+00    4.982747e+06    0.000000e+00    1.394772e+05   -1.263693e+02   -5.265448e+00    1.079077e+00   -5.741368e-14
   1.297404e-04    4.938715e+06    7.181197e+00    4.938708e+06    0.000000e+00    1.386538e+05   -1.259965e+02   -1.643110e+01    1.079073e+00   -5.741250e-14
   1.305104e-04    4.895063e+06    4.086642e+00    4.895059e+06    0.000000e+00    1.378353e+05   -1.256248e+02   -1.109977e+01    1.079069e+00   -5.741132e-14
   1.312850e-04    4.851801e+06    5.753292e+00    4.851795e+06    0.000000e+00    1.370216e+05   -1.252541e+02   -1.408699e+01    1.079065e+00   -5.741013e-14
   1.320642e-04    4.808921e+06    6.304645e+00    4.808914e+06    0.000000e+00    1.362127e+05   -1.248846e+02   -1.501158e+01    1.079061e+00   -5.740893e-14
   1.328480e-04    4.766415e+06    2.892095e+00    4.766412e+06    0.000000e+00    1.354085e+05   -1.245161e+02   -8.713242e+00    1.079056e+00   -5.740773e-14
   1.336364e-04    4.724292e+06    6.977929e+00    4.724285e+06    0.000000e+00    1.346091e+05   -1.241488e+02   -1.610734e+01    1.079052e+00   -5.740652e-14
   1.344295e-04    4.682533e+06    2.624349e+00    4.682530e+06    0.000000e+00    1.338144e+05   -1.237825e+02   -8.138669e+00    1.079048e+00   -5.740530e-14
   1.352274e-04    4.641151e+06    6.188463e+00    4.641145e+06    0.000000e+00    1.330244e+05   -1.234174e+02   -1.481970e+01    1.079043e+00   -5.740407e-14
   1.360299e-04    4.600130e+06    5.340226e+00    4.600125e+06    0.000000e+00    1.322391e+05   -1.230532e+02   -1.337604e+01    1.079039e+00   -5.740284e-14
   1.368372e-04    4.559471e+06    4.008933e+00    4.559467e+06    0.000000e+00    1.314584e+05   -1.226902e+02   -1.095236e+01    1.079035e+00   -5.740160e-14
   1.376494e-04    4.519176e+06    6.561988e+00    4.519169e+06    0.000000e+00    1.306823e+05   -1.223282e+02   -1.543503e+01    1.079030e+00   -5.740035e-14
   1.384663e-04    4.479228e+06    1.054609e+00    4.479227e+06    0.000000e+00    1.299108e+05   -1.219673e+02   -4.267395e+00    1.079026e+00   -5.739909e-14
   1.392881e-04    4.439644e+06    6.356520e+00    4.439638e+06    0.000000e+00    1.291438e+05   -1.216075e+02   -1.509788e+01    1.079021e+00   -5.739783e-14
   1.401148e-04    4.400402e+06    4.223171e+00    4.400398e+06    0.000000e+00    1.283814e+05   -1.212487e+02   -1.135753e+01    1.079017e+00   -5.739656e-14
   1.409463e-04    4.361510e+06    4.797597e+00    4.361505e+06    0.000000e+00    1.276235e+05   -1.208910e+02   -1.241420e+01    1.079012e+00   -5.739528e-14
   1.417828e-04    4.322962e+06    5.944907e+00    4.322956e+06    0.000000e+00    1.268700e+05   -1.205344e+02   -1.441159e+01    1.079008e+00   -5.739400e-14
   1.426243e-04    4.284750e+06    1.975632e+00    4.284748e+06    0.000000e+00    1.261210e+05   -1.201787e+02   -6.663158e+00    1.079003e+00   -5.739270e-14
   1.434708e-04    4.246883e+06    6.282781e+00    4.246877e+06    0.000000e+00    1.253764e+05   -1.198242e+02   -1.497562e+01    1.078998e+00   -5.739140e-14
   1.443223e-04    4.209344e+06    3.003302e+00    4.209341e+06    0.000000e+00    1.246362e+05   -1.194707e+02   -8.947301e+00    1.078994e+00   -5.739009e-14
   1.451788e-04    4.172142e+06    5.316648e+00    4.172136e+06    0.000000e+00    1.239003e+05   -1.191182e+02   -1.333502e+01    1.078989e+00   -5.738878e-14
   1.460404e-04    4.135266e+06    5.169746e+00    4.135260e+06    0.000000e+00    1.231688e+05   -1.187668e+02   -1.307742e+01    1.078984e+00   -5.738745e-14
   1.469072e-04    4.098714e+06    3.095329e+00    4.098710e+06    0.000000e+00    1.224416e+05   -1.184164e+02   -9.138679e+00    1.078980e+00   -5.738612e-14
   1.477791e-04    4.062489e+06    6.008802e+00    4.062483e+06    0.000000e+00    1.217187e+05   -1.180671e+02   -1.451950e+01    1.078975e+00   -5.738478e-14
   1.486561e-04    4.026578e+06    1.676280e+00    4.026577e+06    0.000000e+00    1.210001e+05   -1.177187e+02   -5.932357e+00    1.078970e+00   -5.738344e-14
   1.495384e-04    3.990993e+06    5.571999e+00    3.990987e+06    0.000000e+00    1.202857e+05   -1.173715e+02   -1.377675e+01    1.078965e+00   -5.738208e-14
   1.504259e-04    3.955716e+06    4.258518e+00    3.955712e+06    0.000000e+00    1.195756e+05   -1.170252e+02   -1.142412e+01    1.078960e+00   -5.738072e-14
   1.513187e-04    3.920752e+06    3.935621e+00    3.920748e+06    0.000000e+00    1.188696e+05   -1.166800e+02   -1.081167e+01    1.078955e+00   -5.737934e-14
   1.522167e-04    3.886099e+06    5.548852e+00    3.886094e+06    0.000000e+00    1.181677e+05   -1.163357e+02   -1.373701e+01    1.078951e+00   -5.737796e-14
   1.531201e-04    3.851747e+06    1.141382e+00    3.851746e+06    0.000000e+00    1.174701e+05   -1.159925e+02   -4.514788e+00    1.078946e+00   -5.737658e-14
   1.540289e-04    3.817706e+06    5.612658e+00    3.817701e+06    0.000000e+00    1.167765e+05   -1.156503e+02   -1.384709e+01    1.078941e+00   -5.737518e-14
   1.549430e-04    3.783960e+06    3.232622e+00    3.783957e+06    0.000000e+00    1.160870e+05   -1.153091e+02   -9.421226e+00    1.078936e+00   -5.737378e-14
   1.558626e-04    3.750515e+06    4.497011e+00    3.750511e+06    0.000000e+00    1.154016e+05   -1.149690e+02   -1.186654e+01    1.078931e+00   -5.737236e-14
   1.567877e-04    3.717366e+06    4.946358e+00    3.717361e+06    0.000000e+00    1.147203e+05   -1.146298e+02   -1.268112e+01    1.078926e+00   -5.737094e-14
   1.577182e-04    3.684506e+06    2.274319e+00    3.684503e+06    0.000000e+00    1.140429e+05   -1.142916e+02   -7.358811e+00    1.078921e+00   -5.736951e-14
   1.586542e-04    3.651942e+06    5.457224e+00    3.651936e+06    0.000000e+00    1.133696e+05   -1.139544e+02   -1.357933e+01    1.078915e+00   -5.736807e-14
   1.595958e-04    3.619659e+06    2.111432e+00    3.619657e+06    0.000000e+00    1.127002e+05   -1.136182e+02   -6.983092e+00    1.078910e+00   -5.736663e-14
   1.605430e-04    3.587668e+06    4.835976e+00    3.587663e+06    0.000000e+00    1.120348e+05   -1.132831e+02   -1.248352e+01    1.078905e+00   -5.736517e-14
   1.614958e-04    3.555956e+06    4.199101e+00    3.555952e+06    0.000000e+00    1.113733e+05   -1.129489e+02   -1.131207e+01    1.078900e+00   -5.736371e-14
   1.624543e-04    3.524524e+06    3.140804e+00    3.524520e+06    0.000000e+00    1.107157e+05   -1.126156e+02   -9.232828e+00    1.078895e+00   -5.736224e-14
   1.634185e-04    3.493372e+06    5.132154e+00    3.493367e+06    0.000000e+00    1.100620e+05   -1.122834e+02   -1.301118e+01    1.078889e+00   -5.736075e-14
   1.643883e-04    3.462490e+06    9.148041e-01    3.462489e+06    0.000000e+00    1.094122e+05   -1.119521e+02   -3.854794e+00    1.078884e+00   -5.735927e-14
   1.653640e-04    3.431889e+06    4.962361e+00    3.431884e+06    0.000000e+00    1.087661e+05   -1.116219e+02   -1.270982e+01    1.078879e+00   -5.735777e-14
   1.663454e-04    3.401552e+06    3.349577e+00    3.401549e+06    0.000000e+00    1.081239e+05   -1.112926e+02   -9.658665e+00    1.078873e+00   -5.735626e-14
   1.673327e-04    3.371486e+06    3.745707e+00    3.371482e+06    0.000000e+00    1.074855e+05   -1.109643e+02   -1.044452e+01    1.078868e+00   -5.735474e-14
   1.683258e-04    3.341686e+06    4.669578e+00    3.341681e+06    0.000000e+00    1.068509e+05   -1.106369e+02   -1.218252e+01    1.078863e+00   -5.735322e-14
   1.693248e-04    3.312145e+06    1.540738e+00    3.312143e+06    0.000000e+00    1.062199e+05   -1.103105e+02   -5.588245e+00    1.078857e+00   -5.735168e-14
   1.703297e-04    3.282871e+06    4.916748e+00    3.282866e+06    0.000000e+00    1.055928e+05   -1.099851e+02   -1.262776e+01    1.078852e+00   -5.735014e-14
   1.713406e-04    3.253851e+06    2.417267e+00    3.253848e+06    0.000000e+00    1.049693e+05   -1.096606e+02   -7.681535e+00    1.078846e+00   -5.734859e-14
   1.723575e-04    3.225091e+06    4.147117e+00    3.225086e+06    0.000000e+00    1.043495e+05   -1.093371e+02   -1.121466e+01    1.078841e+00   -5.734702e-14
   1.733804e-04    3.196583e+06    4.076195e+00    3.196579e+06    0.000000e+00    1.037333e+05   -1.090146e+02   -1.107975e+01    1.078835e+00   -5.734545e-14
   1.744094e-04    3.168326e+06    2.409396e+00    3.168323e+06    0.000000e+00    1.031208e+05   -1.086929e+02   -7.663789e+00    1.078829e+00   -5.734387e-14
   1.754445e-04    3.140322e+06    4.706449e+00    3.140317e+06    0.000000e+00    1.025119e+05   -1.083723e+02   -1.224950e+01    1.078824e+00   -5.734228e-14
   1.764858e-04    3.112560e+06    1.396411e+00    3.112559e+06    0.000000e+00    1.019066e+05   -1.080526e+02   -5.211560e+00    1.078818e+00   -5.734068e-14
   1.775332e-04    3.085050e+06    4.346611e+00    3.085045e+06    0.000000e+00    1.013048e+05   -1.077338e+02   -1.158805e+01    1.078812e+00   -5.733907e-14
   1.785869e-04    3.057779e+06    3.386234e+00    3.057775e+06    0.000000e+00    1.007067e+05   -1.074160e+02   -9.732181e+00    1.078807e+00   -5.733746e-14
   1.796468e-04    3.030749e+06    3.060475e+00    3.030746e+06    0.000000e+00    1.001120e+05   -1.070991e+02   -9.066458e+00    1.078801e+00   -5.733583e-14
   1.807130e-04    3.003960e+06    4.357834e+00    3.003956e+06    0.000000e+00    9.952085e+04   -1.067832e+02   -1.160910e+01    1.078795e+00   -5.733419e-14
   1.817855e-04    2.977403e+06    8.835576e-01    2.977402e+06    0.000000e+00    9.893319e+04   -1.064681e+02   -3.760187e+00    1.078789e+00   -5.733254e-14
   1.828644e-04    2.951088e+06    4.385344e+00    2.951083e+06    0.000000e+00    9.834900e+04   -1.061541e+02   -1.166046e+01    1.078783e+00   -5.733089e-14
   1.839497e-04    2.924999e+06    2.599835e+00    2.924997e+06    0.000000e+00    9.776825e+04   -1.058409e+02   -8.085388e+00    1.078777e+00   -5.732922e-14
   1.850414e-04    2.899144e+06    3.499362e+00    2.899141e+06    0.000000e+00    9.719093e+04   -1.055287e+02   -9.958801e+00    1.078771e+00   -5.732754e-14
   1.861396e-04    2.873517e+06    3.901600e+00    2.873513e+06    0.000000e+00    9.661701e+04   -1.052174e+02   -1.074661e+01    1.078765e+00   -5.732586e-14
   1.872443e-04    2.848114e+06    1.756612e+00    2.848113e+06    0.000000e+00    9.604648e+04   -1.049069e+02   -6.131893e+00    1.078759e+00   -5.732416e-14
   1.883556e-04    2.822940e+06    4.274158e+00    2.822936e+06    0.000000e+00    9.547932e+04   -1.045975e+02   -1.145341e+01    1.078753e+00   -5.732245e-14
   1.894735e-04    2.797984e+06    1.750423e+00    2.797982e+06    0.000000e+00    9.491550e+04   -1.042889e+02   -6.116733e+00    1.078747e+00   -5.732074e-14
   1.905980e-04    2.773252e+06    3.765323e+00    2.773248e+06    0.000000e+00    9.435501e+04   -1.039813e+02   -1.048284e+01    1.078741e+00   -5.731901e-14
   1.917292e-04    2.748737e+06    3.341220e+00    2.748733e+06    0.000000e+00    9.379783e+04   -1.036745e+02   -9.641837e+00    1.078735e+00   -5.731727e-14
   1.928671e-04    2.724437e+06    2.423094e+00    2.724435e+06    0.000000e+00    9.324393e+04   -1.033686e+02   -7.694636e+00    1.078729e+00   -5.731553e-14
   1.940117e-04    2.700355e+06    4.035463e+00    2.700351e+06    0.000000e+00    9.269331e+04   -1.030637e+02   -1.100285e+01    1.078722e+00   -5.731377e-14
   1.951632e-04    2.676481e+06    8.384410e-01    2.676480e+06    0.000000e+00    9.214593e+04   -1.027596e+02   -3.621674e+00    1.078716e+00   -5.731200e-14
   1.963215e-04    2.652824e+06    3.873388e+00    2.652820e+06    0.000000e+00    9.160178e+04   -1.024565e+02   -1.069222e+01    1.078710e+00   -5.731022e-14
   1.974866e-04    2.629372e+06    2.697644e+00    2.629370e+06    0.000000e+00    9.106084e+04   -1.021543e+02   -8.297902e+00    1.078703e+00   -5.730843e-14
   1.986587e-04    2.606129e+06    2.901753e+00    2.606126e+06    0.000000e+00    9.052309e+04   -1.018529e+02   -8.733765e+00    1.078697e+00   -5.730664e-14
   1.998377e-04    2.583091e+06    3.685515e+00    2.583088e+06    0.000000e+00    8.998852e+04   -1.015525e+02   -1.032679e+01    1.078691e+00   -5.730482e-14
   2.010238e-04    2.560254e+06    1.166963e+00    2.560253e+06    0.000000e+00    8.945709e+04   -1.012528e+02   -4.586740e+00    1.078684e+00   -5.730300e-14
   2.022168e-04    2.537624e+06    3.842133e+00    2.537620e+06    0.000000e+00    8.892881e+04   -1.009542e+02   -1.063150e+01    1.078678e+00   -5.730117e-14
   2.034170e-04    2.515189e+06    1.991952e+00    2.515187e+06    0.000000e+00    8.840364e+04   -1.006563e+02   -6.701667e+00    1.078671e+00   -5.729933e-14
   2.046242e-04    2.492956e+06    3.219700e+00    2.492952e+06    0.000000e+00    8.788157e+04   -1.003594e+02   -9.394813e+00    1.078664e+00   -5.729748e-14
