# All units in Hartree [AU] if not specified
# Convergence: Err(φ)=4.228e-11, Err(n_e)=8.826e-11, Err(IET)=9.835e-13, Q_net=-3.811e-07
# {"name":"Ar", "Z":18, "Zstar":0.12951940411950602, "A":39.948,  "μ[AU]": -2.3817486223e-02, "Te[AU]": 2.806e-03, "Ti[AU]": 2.806e-03, "rs[AU]": 1.372e+01 }
   r[AU]           n[AU]           nf[AU]          nb[AU]          n_ion[AU]       φtot[AU]        δVxc/δρ[Au]     U_ei[AU]        U_ii[AU]        g_ii            
   1.000000e-04    7.298702e+06    7.931365e+00    7.298694e+06    0.000000e+00    1.799152e+05   -1.434897e+02   -1.758653e+01    7.631476e-01   -1.729019e-07
   1.005935e-04    7.234201e+06    9.378018e+00    7.234192e+06    0.000000e+00    1.788533e+05   -1.430664e+02   -1.974963e+01    7.631453e-01   -1.728992e-07
   1.011905e-04    7.170262e+06    1.617967e+00    7.170260e+06    0.000000e+00    1.777975e+05   -1.426442e+02   -5.769614e+00    7.631430e-01   -1.728964e-07
   1.017911e-04    7.106902e+06    9.539624e+00    7.106893e+06    0.000000e+00    1.767480e+05   -1.422234e+02   -1.998412e+01    7.631406e-01   -1.728937e-07
   1.023952e-04    7.044093e+06    6.965647e+00    7.044086e+06    0.000000e+00    1.757047e+05   -1.418037e+02   -1.607158e+01    7.631383e-01   -1.728909e-07
   1.030029e-04    6.981839e+06    5.802095e+00    6.981833e+06    0.000000e+00    1.746676e+05   -1.413853e+02   -1.415461e+01    7.631359e-01   -1.728881e-07
   1.036142e-04    6.920141e+06    9.551925e+00    6.920131e+06    0.000000e+00    1.736366e+05   -1.409682e+02   -2.000204e+01    7.631336e-01   -1.728852e-07
   1.042292e-04    6.858977e+06    3.176552e+00    6.858974e+06    0.000000e+00    1.726116e+05   -1.405522e+02   -9.290402e+00    7.631312e-01   -1.728824e-07
   1.048478e-04    6.798366e+06    8.269669e+00    6.798358e+06    0.000000e+00    1.715927e+05   -1.401376e+02   -1.810307e+01    7.631288e-01   -1.728795e-07
   1.054700e-04    6.738285e+06    8.091953e+00    6.738277e+06    0.000000e+00    1.705798e+05   -1.397241e+02   -1.783197e+01    7.631264e-01   -1.728766e-07
   1.060960e-04    6.678730e+06    3.308754e+00    6.678727e+06    0.000000e+00    1.695729e+05   -1.393118e+02   -9.560226e+00    7.631240e-01   -1.728737e-07
   1.067257e-04    6.619712e+06    9.177325e+00    6.619703e+06    0.000000e+00    1.685720e+05   -1.389008e+02   -1.945543e+01    7.631215e-01   -1.728708e-07
   1.073591e-04    6.561205e+06    5.291464e+00    6.561200e+06    0.000000e+00    1.675769e+05   -1.384910e+02   -1.327518e+01    7.631191e-01   -1.728679e-07
   1.079962e-04    6.503221e+06    6.594896e+00    6.503215e+06    0.000000e+00    1.665877e+05   -1.380824e+02   -1.547307e+01    7.631166e-01   -1.728649e-07
   1.086372e-04    6.445750e+06    8.616488e+00    6.445742e+06    0.000000e+00    1.656044e+05   -1.376750e+02   -1.862473e+01    7.631141e-01   -1.728620e-07
   1.092819e-04    6.388777e+06    1.247248e+00    6.388776e+06    0.000000e+00    1.646268e+05   -1.372687e+02   -4.793559e+00    7.631116e-01   -1.728590e-07
   1.099305e-04    6.332323e+06    8.307678e+00    6.332314e+06    0.000000e+00    1.636550e+05   -1.368638e+02   -1.816042e+01    7.631091e-01   -1.728560e-07
   1.105830e-04    6.276358e+06    6.728560e+00    6.276351e+06    0.000000e+00    1.626890e+05   -1.364600e+02   -1.568942e+01    7.631066e-01   -1.728530e-07
   1.112393e-04    6.220887e+06    4.554705e+00    6.220883e+06    0.000000e+00    1.617286e+05   -1.360574e+02   -1.195713e+01    7.631040e-01   -1.728499e-07
   1.118995e-04    6.165913e+06    8.594809e+00    6.165904e+06    0.000000e+00    1.607739e+05   -1.356560e+02   -1.859255e+01    7.631015e-01   -1.728469e-07
   1.125636e-04    6.111415e+06    3.620627e+00    6.111411e+06    0.000000e+00    1.598249e+05   -1.352557e+02   -1.018332e+01    7.630989e-01   -1.728438e-07
   1.132316e-04    6.057407e+06    7.025499e+00    6.057400e+06    0.000000e+00    1.588814e+05   -1.348566e+02   -1.616784e+01    7.630963e-01   -1.728407e-07
   1.139037e-04    6.003874e+06    7.562361e+00    6.003866e+06    0.000000e+00    1.579435e+05   -1.344588e+02   -1.701511e+01    7.630937e-01   -1.728376e-07
   1.145797e-04    5.950808e+06    2.193714e+00    5.950805e+06    0.000000e+00    1.570112e+05   -1.340620e+02   -7.158049e+00    7.630911e-01   -1.728345e-07
   1.152597e-04    5.898221e+06    8.096376e+00    5.898213e+06    0.000000e+00    1.560843e+05   -1.336665e+02   -1.783866e+01    7.630884e-01   -1.728313e-07
   1.159437e-04    5.846091e+06    5.321649e+00    5.846086e+06    0.000000e+00    1.551629e+05   -1.332721e+02   -1.332806e+01    7.630858e-01   -1.728282e-07
   1.166319e-04    5.794424e+06    5.384779e+00    5.794419e+06    0.000000e+00    1.542470e+05   -1.328789e+02   -1.343766e+01    7.630831e-01   -1.728250e-07
   1.173241e-04    5.743217e+06    7.861219e+00    5.743209e+06    0.000000e+00    1.533365e+05   -1.324869e+02   -1.747778e+01    7.630804e-01   -1.728218e-07
   1.180204e-04    5.692453e+06    1.940444e+00    5.692451e+06    0.000000e+00    1.524313e+05   -1.320960e+02   -6.563162e+00    7.630777e-01   -1.728186e-07
   1.187208e-04    5.642149e+06    7.181071e+00    5.642142e+06    0.000000e+00    1.515315e+05   -1.317063e+02   -1.641488e+01    7.630750e-01   -1.728153e-07
   1.194254e-04    5.592283e+06    6.419486e+00    5.592277e+06    0.000000e+00    1.506369e+05   -1.313177e+02   -1.518602e+01    7.630723e-01   -1.728121e-07
   1.201342e-04    5.542856e+06    3.435098e+00    5.542853e+06    0.000000e+00    1.497477e+05   -1.309303e+02   -9.815065e+00    7.630695e-01   -1.728088e-07
   1.208472e-04    5.493873e+06    7.696455e+00    5.493865e+06    0.000000e+00    1.488637e+05   -1.305440e+02   -1.722386e+01    7.630668e-01   -1.728055e-07
   1.215644e-04    5.445315e+06    3.872875e+00    5.445311e+06    0.000000e+00    1.479849e+05   -1.301588e+02   -1.067542e+01    7.630640e-01   -1.728022e-07
   1.222859e-04    5.397191e+06    5.904334e+00    5.397185e+06    0.000000e+00    1.471113e+05   -1.297748e+02   -1.432763e+01    7.630612e-01   -1.727988e-07
   1.230117e-04    5.349492e+06    7.017203e+00    5.349485e+06    0.000000e+00    1.462429e+05   -1.293920e+02   -1.615455e+01    7.630584e-01   -1.727955e-07
   1.237417e-04    5.302207e+06    1.224377e+00    5.302206e+06    0.000000e+00    1.453795e+05   -1.290102e+02   -4.730669e+00    7.630556e-01   -1.727921e-07
   1.244761e-04    5.255352e+06    7.103556e+00    5.255345e+06    0.000000e+00    1.445213e+05   -1.286296e+02   -1.629215e+01    7.630527e-01   -1.727887e-07
   1.252149e-04    5.208903e+06    5.227795e+00    5.208898e+06    0.000000e+00    1.436681e+05   -1.282501e+02   -1.316338e+01    7.630498e-01   -1.727853e-07
   1.259580e-04    5.162866e+06    4.323261e+00    5.162861e+06    0.000000e+00    1.428200e+05   -1.278717e+02   -1.152917e+01    7.630470e-01   -1.727819e-07
   1.267056e-04    5.117239e+06    7.124593e+00    5.117231e+06    0.000000e+00    1.419769e+05   -1.274945e+02   -1.632541e+01    7.630441e-01   -1.727784e-07
   1.274576e-04    5.072007e+06    2.442296e+00    5.072005e+06    0.000000e+00    1.411387e+05   -1.271183e+02   -7.721879e+00    7.630412e-01   -1.727749e-07
   1.282140e-04    5.027184e+06    6.164216e+00    5.027178e+06    0.000000e+00    1.403055e+05   -1.267433e+02   -1.476332e+01    7.630382e-01   -1.727714e-07
   1.289750e-04    4.982753e+06    6.063319e+00    4.982747e+06    0.000000e+00    1.394772e+05   -1.263693e+02   -1.459513e+01    7.630353e-01   -1.727679e-07
   1.297404e-04    4.938711e+06    2.461775e+00    4.938708e+06    0.000000e+00    1.386538e+05   -1.259965e+02   -7.765203e+00    7.630323e-01   -1.727644e-07
   1.305104e-04    4.895066e+06    6.838251e+00    4.895059e+06    0.000000e+00    1.378353e+05   -1.256248e+02   -1.586750e+01    7.630293e-01   -1.727608e-07
   1.312850e-04    4.851800e+06    4.011071e+00    4.851796e+06    0.000000e+00    1.370216e+05   -1.252541e+02   -1.094070e+01    7.630263e-01   -1.727572e-07
   1.320642e-04    4.808919e+06    4.897908e+00    4.808914e+06    0.000000e+00    1.362127e+05   -1.248846e+02   -1.257874e+01    7.630233e-01   -1.727536e-07
   1.328480e-04    4.766418e+06    6.442091e+00    4.766412e+06    0.000000e+00    1.354085e+05   -1.245162e+02   -1.522313e+01    7.630203e-01   -1.727500e-07
   1.336364e-04    4.724286e+06    1.049333e+00    4.724285e+06    0.000000e+00    1.346091e+05   -1.241488e+02   -4.236404e+00    7.630172e-01   -1.727463e-07
   1.344295e-04    4.682537e+06    6.185056e+00    4.682530e+06    0.000000e+00    1.338144e+05   -1.237826e+02   -1.479820e+01    7.630141e-01   -1.727427e-07
   1.352274e-04    4.641150e+06    5.068091e+00    4.641145e+06    0.000000e+00    1.330244e+05   -1.234174e+02   -1.288175e+01    7.630110e-01   -1.727390e-07
   1.360299e-04    4.600128e+06    3.369953e+00    4.600125e+06    0.000000e+00    1.322391e+05   -1.230532e+02   -9.684000e+00    7.630079e-01   -1.727353e-07
   1.368372e-04    4.559474e+06    6.415879e+00    4.559467e+06    0.000000e+00    1.314584e+05   -1.226902e+02   -1.518009e+01    7.630048e-01   -1.727315e-07
   1.376494e-04    4.519172e+06    2.787318e+00    4.519169e+06    0.000000e+00    1.306823e+05   -1.223282e+02   -8.475095e+00    7.630016e-01   -1.727278e-07
   1.384663e-04    4.479232e+06    5.222709e+00    4.479227e+06    0.000000e+00    1.299108e+05   -1.219673e+02   -1.315452e+01    7.629985e-01   -1.727240e-07
   1.392881e-04    4.439643e+06    5.679069e+00    4.439638e+06    0.000000e+00    1.291438e+05   -1.216075e+02   -1.394526e+01    7.629953e-01   -1.727202e-07
   1.401148e-04    4.400400e+06    1.613542e+00    4.400398e+06    0.000000e+00    1.283814e+05   -1.212487e+02   -5.758313e+00    7.629921e-01   -1.727164e-07
   1.409463e-04    4.361511e+06    6.032524e+00    4.361505e+06    0.000000e+00    1.276235e+05   -1.208910e+02   -1.454361e+01    7.629889e-01   -1.727125e-07
   1.417828e-04    4.322960e+06    4.037531e+00    4.322956e+06    0.000000e+00    1.268700e+05   -1.205344e+02   -1.099117e+01    7.629856e-01   -1.727087e-07
   1.426243e-04    4.284752e+06    3.990266e+00    4.284748e+06    0.000000e+00    1.261210e+05   -1.201788e+02   -1.090079e+01    7.629824e-01   -1.727048e-07
   1.434708e-04    4.246883e+06    5.886285e+00    4.246877e+06    0.000000e+00    1.253764e+05   -1.198242e+02   -1.429731e+01    7.629791e-01   -1.727009e-07
   1.443223e-04    4.209342e+06    1.578127e+00    4.209341e+06    0.000000e+00    1.246362e+05   -1.194707e+02   -5.668416e+00    7.629758e-01   -1.726969e-07
   1.451788e-04    4.172142e+06    5.339598e+00    4.172136e+06    0.000000e+00    1.239003e+05   -1.191182e+02   -1.335935e+01    7.629725e-01   -1.726930e-07
   1.460404e-04    4.135265e+06    4.848185e+00    4.135261e+06    0.000000e+00    1.231688e+05   -1.187668e+02   -1.248977e+01    7.629691e-01   -1.726890e-07
   1.469072e-04    4.098713e+06    2.521816e+00    4.098711e+06    0.000000e+00    1.224416e+05   -1.184164e+02   -7.898295e+00    7.629658e-01   -1.726850e-07
   1.477791e-04    4.062489e+06    5.738748e+00    4.062484e+06    0.000000e+00    1.217187e+05   -1.180671e+02   -1.404663e+01    7.629624e-01   -1.726809e-07
   1.486561e-04    4.026580e+06    2.996957e+00    4.026577e+06    0.000000e+00    1.210001e+05   -1.177187e+02   -8.918020e+00    7.629590e-01   -1.726769e-07
   1.495384e-04    3.990991e+06    4.373513e+00    3.990987e+06    0.000000e+00    1.202857e+05   -1.173715e+02   -1.162253e+01    7.629556e-01   -1.726728e-07
   1.504259e-04    3.955717e+06    5.267509e+00    3.955712e+06    0.000000e+00    1.195756e+05   -1.170252e+02   -1.323301e+01    7.629521e-01   -1.726687e-07
   1.513187e-04    3.920749e+06    8.665784e-01    3.920748e+06    0.000000e+00    1.188696e+05   -1.166799e+02   -3.692605e+00    7.629487e-01   -1.726646e-07
   1.522167e-04    3.886099e+06    5.290813e+00    3.886094e+06    0.000000e+00    1.181677e+05   -1.163357e+02   -1.327404e+01    7.629452e-01   -1.726604e-07
   1.531201e-04    3.851750e+06    3.978390e+00    3.851746e+06    0.000000e+00    1.174701e+05   -1.159925e+02   -1.087790e+01    7.629417e-01   -1.726562e-07
   1.540289e-04    3.817704e+06    3.173442e+00    3.817701e+06    0.000000e+00    1.167765e+05   -1.156503e+02   -9.284064e+00    7.629381e-01   -1.726520e-07
   1.549430e-04    3.783962e+06    5.337918e+00    3.783957e+06    0.000000e+00    1.160870e+05   -1.153091e+02   -1.335643e+01    7.629346e-01   -1.726478e-07
   1.558626e-04    3.750513e+06    1.954491e+00    3.750511e+06    0.000000e+00    1.154016e+05   -1.149689e+02   -6.597028e+00    7.629310e-01   -1.726436e-07
   1.567877e-04    3.717365e+06    4.569526e+00    3.717361e+06    0.000000e+00    1.147203e+05   -1.146298e+02   -1.198428e+01    7.629275e-01   -1.726393e-07
   1.577182e-04    3.684508e+06    4.586061e+00    3.684503e+06    0.000000e+00    1.140429e+05   -1.142916e+02   -1.201446e+01    7.629238e-01   -1.726350e-07
   1.586542e-04    3.651938e+06    1.776168e+00    3.651936e+06    0.000000e+00    1.133696e+05   -1.139544e+02   -6.164581e+00    7.629202e-01   -1.726307e-07
   1.595958e-04    3.619662e+06    5.096936e+00    3.619657e+06    0.000000e+00    1.127002e+05   -1.136183e+02   -1.293271e+01    7.629166e-01   -1.726263e-07
   1.605430e-04    3.587666e+06    3.095627e+00    3.587663e+06    0.000000e+00    1.120348e+05   -1.132830e+02   -9.123401e+00    7.629129e-01   -1.726219e-07
   1.614958e-04    3.555955e+06    3.613012e+00    3.555952e+06    0.000000e+00    1.113733e+05   -1.129489e+02   -1.016816e+01    7.629092e-01   -1.726175e-07
   1.624543e-04    3.524525e+06    4.839429e+00    3.524521e+06    0.000000e+00    1.107157e+05   -1.126157e+02   -1.247401e+01    7.629055e-01   -1.726131e-07
   1.634185e-04    3.493368e+06    9.472909e-01    3.493367e+06    0.000000e+00    1.100620e+05   -1.122834e+02   -3.936526e+00    7.629018e-01   -1.726086e-07
   1.643883e-04    3.462494e+06    4.598050e+00    3.462489e+06    0.000000e+00    1.094122e+05   -1.119522e+02   -1.203628e+01    7.628980e-01   -1.726042e-07
   1.653640e-04    3.431888e+06    3.858647e+00    3.431884e+06    0.000000e+00    1.087661e+05   -1.116219e+02   -1.064776e+01    7.628942e-01   -1.725996e-07
   1.663454e-04    3.401551e+06    2.450657e+00    3.401549e+06    0.000000e+00    1.081239e+05   -1.112926e+02   -7.740517e+00    7.628904e-01   -1.725951e-07
   1.673327e-04    3.371487e+06    4.797424e+00    3.371482e+06    0.000000e+00    1.074855e+05   -1.109643e+02   -1.239798e+01    7.628866e-01   -1.725905e-07
   1.683258e-04    3.341683e+06    2.219449e+00    3.341681e+06    0.000000e+00    1.068509e+05   -1.106369e+02   -7.217625e+00    7.628827e-01   -1.725860e-07
   1.693248e-04    3.312147e+06    3.855537e+00    3.312143e+06    0.000000e+00    1.062199e+05   -1.103105e+02   -1.064170e+01    7.628789e-01   -1.725813e-07
   1.703297e-04    3.282871e+06    4.294777e+00    3.282866e+06    0.000000e+00    1.055928e+05   -1.099851e+02   -1.147624e+01    7.628750e-01   -1.725767e-07
   1.713406e-04    3.253849e+06    1.126935e+00    3.253848e+06    0.000000e+00    1.049693e+05   -1.096606e+02   -4.458460e+00    7.628710e-01   -1.725720e-07
   1.723575e-04    3.225091e+06    4.489641e+00    3.225086e+06    0.000000e+00    1.043495e+05   -1.093371e+02   -1.183691e+01    7.628671e-01   -1.725673e-07
   1.733804e-04    3.196582e+06    3.119821e+00    3.196579e+06    0.000000e+00    1.037333e+05   -1.090146e+02   -9.173791e+00    7.628631e-01   -1.725626e-07
   1.744094e-04    3.168326e+06    2.912336e+00    3.168323e+06    0.000000e+00    1.031208e+05   -1.086929e+02   -8.740416e+00    7.628591e-01   -1.725578e-07
   1.754445e-04    3.140322e+06    4.424731e+00    3.140317e+06    0.000000e+00    1.025119e+05   -1.083723e+02   -1.171779e+01    7.628551e-01   -1.725531e-07
   1.764858e-04    3.112560e+06    1.347680e+00    3.112559e+06    0.000000e+00    1.019066e+05   -1.080526e+02   -5.065957e+00    7.628511e-01   -1.725482e-07
   1.775332e-04    3.085049e+06    3.952078e+00    3.085046e+06    0.000000e+00    1.013049e+05   -1.077338e+02   -1.082751e+01    7.628470e-01   -1.725434e-07
   1.785869e-04    3.057779e+06    3.698713e+00    3.057775e+06    0.000000e+00    1.007067e+05   -1.074160e+02   -1.033695e+01    7.628430e-01   -1.725385e-07
   1.796468e-04    3.030748e+06    1.799223e+00    3.030746e+06    0.000000e+00    1.001120e+05   -1.070991e+02   -6.221343e+00    7.628388e-01   -1.725336e-07
   1.807130e-04    3.003960e+06    4.287856e+00    3.003956e+06    0.000000e+00    9.952086e+04   -1.067832e+02   -1.146332e+01    7.628347e-01   -1.725287e-07
   1.817855e-04    2.977405e+06    2.367908e+00    2.977402e+06    0.000000e+00    9.893320e+04   -1.064681e+02   -7.555226e+00    7.628306e-01   -1.725237e-07
   1.828644e-04    2.951087e+06    3.211789e+00    2.951083e+06    0.000000e+00    9.834900e+04   -1.061541e+02   -9.362782e+00    7.628264e-01   -1.725188e-07
   1.839497e-04    2.925001e+06    3.981609e+00    2.924997e+06    0.000000e+00    9.776825e+04   -1.058409e+02   -1.088411e+01    7.628222e-01   -1.725137e-07
   1.850414e-04    2.899142e+06    5.393819e-01    2.899141e+06    0.000000e+00    9.719093e+04   -1.055286e+02   -2.620402e+00    7.628179e-01   -1.725087e-07
   1.861396e-04    2.873517e+06    3.928720e+00    2.873514e+06    0.000000e+00    9.661702e+04   -1.052174e+02   -1.078298e+01    7.628137e-01   -1.725036e-07
   1.872443e-04    2.848116e+06    3.073489e+00    2.848113e+06    0.000000e+00    9.604649e+04   -1.049070e+02   -9.077760e+00    7.628094e-01   -1.724985e-07
   1.883556e-04    2.822938e+06    2.290294e+00    2.822936e+06    0.000000e+00    9.547932e+04   -1.045975e+02   -7.379568e+00    7.628051e-01   -1.724934e-07
   1.894735e-04    2.797986e+06    4.005178e+00    2.797982e+06    0.000000e+00    9.491551e+04   -1.042889e+02   -1.092942e+01    7.628008e-01   -1.724882e-07
   1.905980e-04    2.773250e+06    1.627088e+00    2.773248e+06    0.000000e+00    9.435502e+04   -1.039812e+02   -5.792814e+00    7.627964e-01   -1.724830e-07
   1.917292e-04    2.748737e+06    3.361153e+00    2.748733e+06    0.000000e+00    9.379783e+04   -1.036745e+02   -9.666344e+00    7.627920e-01   -1.724778e-07
   1.928671e-04    2.724439e+06    3.494176e+00    2.724435e+06    0.000000e+00    9.324394e+04   -1.033687e+02   -9.932700e+00    7.627876e-01   -1.724725e-07
   1.940117e-04    2.700353e+06    1.227927e+00    2.700351e+06    0.000000e+00    9.269331e+04   -1.030637e+02   -4.740511e+00    7.627832e-01   -1.724673e-07
   1.951632e-04    2.676484e+06    3.800251e+00    2.676480e+06    0.000000e+00    9.214593e+04   -1.027597e+02   -1.053500e+01    7.627787e-01   -1.724619e-07
   1.963215e-04    2.652823e+06    2.441156e+00    2.652821e+06    0.000000e+00    9.160178e+04   -1.024565e+02   -7.719332e+00    7.627742e-01   -1.724566e-07
   1.974866e-04    2.629372e+06    2.625886e+00    2.629370e+06    0.000000e+00    9.106084e+04   -1.021543e+02   -8.126443e+00    7.627697e-01   -1.724512e-07
   1.986587e-04    2.606130e+06    3.661324e+00    2.606126e+06    0.000000e+00    9.052309e+04   -1.018529e+02   -1.026380e+01    7.627651e-01   -1.724458e-07
   1.998377e-04    2.583089e+06    8.983135e-01    2.583088e+06    0.000000e+00    8.998852e+04   -1.015524e+02   -3.789424e+00    7.627606e-01   -1.724403e-07
   2.010238e-04    2.560256e+06    3.399348e+00    2.560253e+06    0.000000e+00    8.945710e+04   -1.012529e+02   -9.742876e+00    7.627560e-01   -1.724349e-07
   2.022168e-04    2.537623e+06    2.981503e+00    2.537620e+06    0.000000e+00    8.892881e+04   -1.009542e+02   -8.885962e+00    7.627514e-01   -1.724293e-07
   2.034170e-04    2.515189e+06    1.733895e+00    2.515187e+06    0.000000e+00    8.840364e+04   -1.006563e+02   -6.060275e+00    7.627467e-01   -1.724238e-07
   2.046242e-04    2.492956e+06    3.597075e+00    2.492952e+06    0.000000e+00    8.788157e+04   -1.003594e+02   -1.013696e+01    7.627420e-01   -1.724182e-07
