# All units in Hartree [AU] if not specified
# Convergence: Err(φ)=4.033e-11, Err(n_e)=9.813e-11, Err(IET)=9.986e-13, Q_net=-3.205e-07
# {"name":"Ar", "Z":18, "Zstar":0.17794539834948964, "A":39.948,  "μ[AU]": -1.9208028130e-02, "Te[AU]": 2.946e-03, "Ti[AU]": 2.946e-03, "rs[AU]": 1.372e+01 }
   r[AU]           U_ei[AU]        U_ii[AU]        g_ii            
   6.857824e-02   -2.373679e-01    1.042392e+00    0.000000e+00
   1.371565e-01   -1.807363e-01    5.466127e-01    0.000000e+00
   2.057347e-01   -1.534065e-01    4.244093e-01    0.000000e+00
   2.743130e-01   -1.368165e-01    3.479649e-01    0.000000e+00
   3.428912e-01   -1.258284e-01    3.161463e-01    0.000000e+00
   4.114694e-01   -1.170529e-01    2.887066e-01    0.000000e+00
   4.800477e-01   -1.102095e-01    2.755777e-01    0.000000e+00
   5.486259e-01   -1.046424e-01    2.622088e-01    2.451372e-11
   6.172042e-01   -1.000370e-01    2.554232e-01    2.631992e-10
   6.857824e-01   -9.606855e-02    2.476809e-01    3.553865e-09
   7.543606e-01   -9.263940e-02    2.436147e-01    1.359300e-08
   8.229389e-01   -8.964282e-02    2.385773e-01    7.199588e-08
   8.915171e-01   -8.697680e-02    2.358596e-01    1.728436e-07
   9.600953e-01   -8.458456e-02    2.322929e-01    5.514804e-07
   1.028674e+00   -8.241312e-02    2.303171e-01    1.021543e-06
   1.097252e+00   -8.043535e-02    2.276254e-01    2.403900e-06
   1.165830e+00   -7.862191e-02    2.260917e-01    3.804044e-06
   1.234408e+00   -7.693581e-02    2.239575e-01    7.353639e-06
   1.302987e+00   -7.536858e-02    2.227042e-01    1.050280e-05
   1.371565e+00   -7.390164e-02    2.209445e-01    1.774784e-05
   1.440143e+00   -7.252379e-02    2.198775e-01    2.362021e-05
   1.508721e+00   -7.121800e-02    2.183800e-01    3.624935e-05
   1.577299e+00   -6.998286e-02    2.174413e-01    4.584989e-05
   1.645878e+00   -6.880878e-02    2.161330e-01    6.550805e-05
   1.714456e+00   -6.768558e-02    2.152849e-01    7.976496e-05
   1.783034e+00   -6.660893e-02    2.141163e-01    1.078974e-04
   1.851612e+00   -6.557702e-02    2.133332e-01    1.275881e-04
   1.920191e+00   -6.458015e-02    2.122696e-01    1.653462e-04
   1.988769e+00   -6.362111e-02    2.115333e-01    1.910588e-04
   2.057347e+00   -6.269047e-02    2.105494e-01    2.392621e-04
   2.125925e+00   -6.178853e-02    2.098467e-01    2.713859e-04
   2.194504e+00   -6.091288e-02    2.089238e-01    3.305256e-04
   2.263082e+00   -6.005836e-02    2.082448e-01    3.692623e-04
   2.331660e+00   -5.922516e-02    2.073687e-01    4.395325e-04
   2.400238e+00   -5.841173e-02    2.067059e-01    4.849199e-04
   2.468817e+00   -5.761477e-02    2.058654e-01    5.662625e-04
   2.537395e+00   -5.683229e-02    2.052129e-01    6.182042e-04
   2.605973e+00   -5.606305e-02    2.043994e-01    7.103589e-04
   2.674551e+00   -5.530567e-02    2.037527e-01    7.686548e-04
   2.743130e+00   -5.455889e-02    2.029592e-01    8.712091e-04
   2.811708e+00   -5.382101e-02    2.023145e-01    9.355840e-04
   2.880286e+00   -5.309009e-02    2.015354e-01    1.048017e-03
   2.948864e+00   -5.236510e-02    2.008898e-01    1.118147e-03
   3.017443e+00   -5.164429e-02    2.001207e-01    1.239870e-03
   3.086021e+00   -5.092543e-02    1.994718e-01    1.315402e-03
   3.154599e+00   -5.020687e-02    1.987089e-01    1.445790e-03
   3.223177e+00   -4.948730e-02    1.980548e-01    1.526362e-03
   3.291755e+00   -4.876670e-02    1.972949e-01    1.664777e-03
   3.360334e+00   -4.804029e-02    1.966339e-01    1.750030e-03
   3.428912e+00   -4.730885e-02    1.958747e-01    1.895846e-03
   3.497490e+00   -4.656934e-02    1.952055e-01    1.985437e-03
   3.566068e+00   -4.582171e-02    1.944447e-01    2.138050e-03
   3.634647e+00   -4.506263e-02    1.937664e-01    2.231657e-03
   3.703225e+00   -4.429308e-02    1.930022e-01    2.390501e-03
   3.771803e+00   -4.351202e-02    1.923137e-01    2.487831e-03
   3.840381e+00   -4.271801e-02    1.915447e-01    2.652383e-03
   3.908960e+00   -7.043704e-02    1.908453e-01    2.753176e-03
   3.977538e+00   -6.963760e-02    1.900703e-01    2.922961e-03
   4.046116e+00   -6.886493e-02    1.893595e-01    3.026989e-03
   4.114694e+00   -6.811846e-02    1.885774e-01    3.201584e-03
   4.183273e+00   -6.739611e-02    1.878546e-01    3.308657e-03
   4.251851e+00   -6.669674e-02    1.870645e-01    3.487693e-03
   4.320429e+00   -6.602033e-02    1.863293e-01    3.597657e-03
   4.389007e+00   -6.536473e-02    1.855305e-01    3.780818e-03
   4.457586e+00   -6.472884e-02    1.847827e-01    3.893556e-03
   4.526164e+00   -6.411309e-02    1.839746e-01    4.080578e-03
   4.594742e+00   -6.351516e-02    1.832139e-01    4.196006e-03
   4.663320e+00   -6.293479e-02    1.823960e-01    4.386679e-03
   4.731898e+00   -6.237144e-02    1.816223e-01    4.504751e-03
   4.800477e+00   -6.182437e-02    1.807941e-01    4.698912e-03
   4.869055e+00   -6.129210e-02    1.800072e-01    4.819615e-03
   4.937633e+00   -6.077506e-02    1.791685e-01    5.017151e-03
   5.006211e+00   -6.027228e-02    1.783684e-01    5.140504e-03
   5.074790e+00   -5.978277e-02    1.775188e-01    5.341347e-03
   5.143368e+00   -5.930660e-02    1.767055e-01    5.467401e-03
   5.211946e+00   -5.884271e-02    1.758449e-01    5.671527e-03
   5.280524e+00   -5.839102e-02    1.750183e-01    5.800362e-03
   5.349103e+00   -5.795089e-02    1.741466e-01    6.007789e-03
   5.417681e+00   -5.752182e-02    1.733068e-01    6.139515e-03
   5.486259e+00   -5.710358e-02    1.724238e-01    6.350302e-03
   5.554837e+00   -5.669552e-02    1.715709e-01    6.485057e-03
   5.623416e+00   -5.629764e-02    1.706766e-01    6.699299e-03
   5.691994e+00   -5.590938e-02    1.698106e-01    6.837247e-03
   5.760572e+00   -5.553027e-02    1.689051e-01    7.055076e-03
   5.829150e+00   -5.515999e-02    1.680262e-01    7.196408e-03
   5.897729e+00   -5.479823e-02    1.671093e-01    7.417990e-03
   5.966307e+00   -5.444476e-02    1.662177e-01    7.562923e-03
   6.034885e+00   -5.409958e-02    1.652896e-01    7.788458e-03
   6.103463e+00   -5.376211e-02    1.643855e-01    7.937232e-03
   6.172042e+00   -5.343204e-02    1.634462e-01    8.166952e-03
   6.240620e+00   -5.310927e-02    1.625296e-01    8.319833e-03
   6.309198e+00   -5.279354e-02    1.615793e-01    8.554001e-03
   6.377776e+00   -5.248451e-02    1.606506e-01    8.711278e-03
   6.446354e+00   -5.218205e-02    1.596893e-01    8.950187e-03
   6.514933e+00   -5.188609e-02    1.587486e-01    9.112173e-03
   6.583511e+00   -5.159620e-02    1.577766e-01    9.356146e-03
   6.652089e+00   -5.131253e-02    1.568242e-01    9.523178e-03
   6.720667e+00   -5.103448e-02    1.558416e-01    9.772567e-03
   6.789246e+00   -5.076186e-02    1.548777e-01    9.945005e-03
   6.857824e+00   -5.049474e-02    1.538847e-01    1.020019e-02
   6.926402e+00   -5.023301e-02    1.529095e-01    1.037842e-02
   6.994980e+00   -4.997629e-02    1.519064e-01    1.063981e-02
   7.063559e+00   -4.972475e-02    1.509202e-01    1.082425e-02
   7.132137e+00   -4.947817e-02    1.499071e-01    1.109228e-02
   7.200715e+00   -4.923602e-02    1.489103e-01    1.128335e-02
   7.269293e+00   -4.899862e-02    1.478875e-01    1.155850e-02
   7.337872e+00   -4.876554e-02    1.468803e-01    1.175667e-02
   7.406450e+00   -4.853667e-02    1.458480e-01    1.203943e-02
   7.475028e+00   -4.831215e-02    1.448307e-01    1.224517e-02
   7.543606e+00   -4.809141e-02    1.437892e-01    1.253608e-02
   7.612185e+00   -4.787498e-02    1.427621e-01    1.274992e-02
   7.680763e+00   -4.766220e-02    1.417116e-01    1.304952e-02
   7.749341e+00   -4.745361e-02    1.406751e-01    1.327199e-02
   7.817919e+00   -4.724828e-02    1.396159e-01    1.358088e-02
   7.886497e+00   -4.704688e-02    1.385703e-01    1.381257e-02
   7.955076e+00   -4.684859e-02    1.375028e-01    1.413137e-02
   8.023654e+00   -4.665397e-02    1.364483e-01    1.437287e-02
   8.092232e+00   -4.646240e-02    1.353727e-01    1.470224e-02
   8.160810e+00   -4.627416e-02    1.343097e-01    1.495418e-02
   8.229389e+00   -4.608901e-02    1.332264e-01    1.529482e-02
   8.297967e+00   -4.590676e-02    1.321553e-01    1.555788e-02
   8.366545e+00   -4.572774e-02    1.310646e-01    1.591051e-02
   8.435123e+00   -4.555139e-02    1.299857e-01    1.618539e-02
   8.503702e+00   -4.537818e-02    1.288878e-01    1.655079e-02
   8.572280e+00   -4.520776e-02    1.278015e-01    1.683823e-02
   8.640858e+00   -4.503986e-02    1.266968e-01    1.721721e-02
   8.709436e+00   -4.487480e-02    1.256034e-01    1.751800e-02
   8.778015e+00   -4.471225e-02    1.244923e-01    1.791141e-02
   8.846593e+00   -4.455207e-02    1.233922e-01    1.822637e-02
   8.915171e+00   -4.439449e-02    1.222750e-01    1.863511e-02
   8.983749e+00   -4.423932e-02    1.211685e-01    1.896511e-02
   9.052328e+00   -4.408638e-02    1.200456e-01    1.939014e-02
   9.120906e+00   -4.393569e-02    1.189331e-01    1.973609e-02
   9.189484e+00   -4.378744e-02    1.178048e-01    2.017840e-02
   9.258062e+00   -4.364127e-02    1.166867e-01    2.054127e-02
   9.326640e+00   -4.349716e-02    1.155533e-01    2.100191e-02
   9.395219e+00   -4.335515e-02    1.144299e-01    2.138272e-02
   9.463797e+00   -4.321537e-02    1.132919e-01    2.186279e-02
   9.532375e+00   -4.307764e-02    1.121637e-01    2.226261e-02
   9.600953e+00   -4.294183e-02    1.110213e-01    2.276328e-02
   9.669532e+00   -4.280788e-02    1.098886e-01    2.318323e-02
   9.738110e+00   -4.267592e-02    1.087422e-01    2.370574e-02
   9.806688e+00   -4.254585e-02    1.076054e-01    2.414701e-02
   9.875266e+00   -4.241753e-02    1.064555e-01    2.469264e-02
   9.943845e+00   -4.229093e-02    1.053150e-01    2.515649e-02
   1.001242e+01   -4.216602e-02    1.041618e-01    2.572660e-02
   1.008100e+01   -4.204278e-02    1.030180e-01    2.621434e-02
   1.014958e+01   -4.192131e-02    1.018620e-01    2.681036e-02
   1.021816e+01   -4.180148e-02    1.007152e-01    2.732338e-02
   1.028674e+01   -4.168322e-02    9.955675e-02    2.794681e-02
   1.035531e+01   -4.156649e-02    9.840742e-02    2.848656e-02
   1.042389e+01   -4.145128e-02    9.724686e-02    2.913896e-02
   1.049247e+01   -4.133755e-02    9.609536e-02    2.970697e-02
   1.056105e+01   -4.122528e-02    9.493309e-02    3.039001e-02
   1.062963e+01   -4.111444e-02    9.377982e-02    3.098788e-02
   1.069821e+01   -4.100503e-02    9.261623e-02    3.170327e-02
   1.076678e+01   -4.089708e-02    9.146158e-02    3.233268e-02
   1.083536e+01   -4.079052e-02    9.029704e-02    3.308224e-02
   1.090394e+01   -4.068538e-02    8.914140e-02    3.374498e-02
   1.097252e+01   -4.058153e-02    8.797630e-02    3.453061e-02
   1.104110e+01   -4.047897e-02    8.682006e-02    3.522851e-02
   1.110967e+01   -4.037766e-02    8.565479e-02    3.605221e-02
   1.117825e+01   -4.027759e-02    8.449834e-02    3.678722e-02
   1.124683e+01   -4.017873e-02    8.333328e-02    3.765109e-02
   1.131541e+01   -4.008106e-02    8.217702e-02    3.842525e-02
   1.138399e+01   -3.998457e-02    8.101254e-02    3.933147e-02
   1.145257e+01   -3.988923e-02    7.985687e-02    4.014693e-02
   1.152114e+01   -3.979502e-02    7.869336e-02    4.109779e-02
   1.158972e+01   -3.970191e-02    7.753866e-02    4.195678e-02
   1.165830e+01   -3.960990e-02    7.637651e-02    4.295470e-02
   1.172688e+01   -3.951897e-02    7.522317e-02    4.385957e-02
   1.179546e+01   -3.942908e-02    7.406276e-02    4.490705e-02
   1.186404e+01   -3.934023e-02    7.291116e-02    4.586026e-02
   1.193261e+01   -3.925240e-02    7.175288e-02    4.695994e-02
   1.200119e+01   -3.916557e-02    7.060342e-02    4.796407e-02
   1.206977e+01   -3.907972e-02    6.944763e-02    4.911869e-02
   1.213835e+01   -3.899483e-02    6.830069e-02    5.017642e-02
   1.220693e+01   -3.891089e-02    6.714779e-02    5.138886e-02
   1.227550e+01   -3.882788e-02    6.600375e-02    5.250301e-02
   1.234408e+01   -3.874579e-02    6.485410e-02    5.377627e-02
   1.241266e+01   -3.866459e-02    6.371335e-02    5.494977e-02
   1.248124e+01   -3.858428e-02    6.256733e-02    5.628699e-02
   1.254982e+01   -3.850484e-02    6.143024e-02    5.752291e-02
   1.261840e+01   -3.842633e-02    6.028823e-02    5.892735e-02
   1.268697e+01   -3.834869e-02    5.915518e-02    6.022888e-02
   1.275555e+01   -3.827192e-02    5.801755e-02    6.170396e-02
   1.282413e+01   -3.819597e-02    5.688891e-02    6.307444e-02
   1.289271e+01   -3.812082e-02    5.575602e-02    6.462369e-02
   1.296129e+01   -3.804646e-02    5.463217e-02    6.606660e-02
   1.302987e+01   -3.797286e-02    5.350439e-02    6.769372e-02
   1.309844e+01   -3.790002e-02    5.238569e-02    6.921266e-02
   1.316702e+01   -3.782792e-02    5.126338e-02    7.092148e-02
   1.323560e+01   -3.775657e-02    5.015020e-02    7.252022e-02
   1.330418e+01   -3.768604e-02    4.903372e-02    7.431474e-02
   1.337276e+01   -3.761621e-02    4.792642e-02    7.599717e-02
   1.344133e+01   -3.754708e-02    4.681613e-02    7.788152e-02
   1.350991e+01   -3.747863e-02    4.571507e-02    7.965169e-02
   1.357849e+01   -3.741085e-02    4.461132e-02    8.163016e-02
   1.364707e+01   -3.734374e-02    4.351685e-02    8.349229e-02
   1.371565e+01   -1.297390e-02    4.241998e-02    8.556932e-02
   1.378423e+01   -1.290935e-02    4.133246e-02    8.752773e-02
   1.385280e+01   -1.284544e-02    4.024282e-02    8.970793e-02
   1.392138e+01   -1.278216e-02    3.916259e-02    9.176713e-02
   1.398996e+01   -1.271951e-02    3.808053e-02    9.405522e-02
   1.405854e+01   -1.265746e-02    3.700794e-02    9.621984e-02
   1.412712e+01   -1.259602e-02    3.593379e-02    9.862073e-02
   1.419570e+01   -1.253517e-02    3.486916e-02    1.008956e-01
   1.426427e+01   -1.247490e-02    3.380326e-02    1.034143e-01
   1.433285e+01   -1.241521e-02    3.274694e-02    1.058042e-01
   1.440143e+01   -1.235609e-02    3.168961e-02    1.084459e-01
   1.447001e+01   -1.229753e-02    3.064193e-02    1.109560e-01
   1.453859e+01   -1.223953e-02    2.959349e-02    1.137261e-01
   1.460716e+01   -1.218206e-02    2.855477e-02    1.163615e-01
   1.467574e+01   -1.212514e-02    2.751556e-02    1.192654e-01
   1.474432e+01   -1.206874e-02    2.648612e-02    1.220315e-01
   1.481290e+01   -1.201287e-02    2.545644e-02    1.250746e-01
   1.488148e+01   -1.195751e-02    2.443660e-02    1.279767e-01
   1.495006e+01   -1.190266e-02    2.341676e-02    1.311649e-01
   1.501863e+01   -1.184831e-02    2.240683e-02    1.342086e-01
   1.508721e+01   -1.179445e-02    2.139714e-02    1.375476e-01
   1.515579e+01   -1.174108e-02    2.039742e-02    1.407386e-01
   1.522437e+01   -1.168820e-02    1.939818e-02    1.442342e-01
   1.529295e+01   -1.163578e-02    1.840898e-02    1.475781e-01
   1.536153e+01   -1.158384e-02    1.742048e-02    1.512364e-01
   1.543010e+01   -1.153235e-02    1.644208e-02    1.547389e-01
   1.549868e+01   -1.148132e-02    1.546462e-02    1.585660e-01
   1.556726e+01   -1.143075e-02    1.449731e-02    1.622331e-01
   1.563584e+01   -1.138061e-02    1.353117e-02    1.662349e-01
   1.570442e+01   -1.133091e-02    1.257524e-02    1.700725e-01
   1.577299e+01   -1.128165e-02    1.162069e-02    1.742553e-01
   1.584157e+01   -1.123281e-02    1.067642e-02    1.782692e-01
   1.591015e+01   -1.118439e-02    9.733736e-03    1.826391e-01
   1.597873e+01   -1.113639e-02    8.801388e-03    1.868353e-01
   1.604731e+01   -1.108880e-02    7.870839e-03    1.913985e-01
   1.611589e+01   -1.104161e-02    6.950682e-03    1.957829e-01
   1.618446e+01   -1.099483e-02    6.032526e-03    2.005456e-01
   1.625304e+01   -1.094844e-02    5.124818e-03    2.051242e-01
   1.632162e+01   -1.090243e-02    4.219308e-03    2.100925e-01
   1.639020e+01   -1.085682e-02    3.324301e-03    2.148710e-01
   1.645878e+01   -1.081158e-02    2.431684e-03    2.200510e-01
   1.652736e+01   -1.076672e-02    1.549624e-03    2.250353e-01
   1.659593e+01   -1.072223e-02    6.701413e-04    2.304329e-01
   1.666451e+01   -1.067810e-02   -1.987322e-04    2.356287e-01
   1.673309e+01   -1.063434e-02   -1.064847e-03    2.412497e-01
   1.680167e+01   -1.059094e-02   -1.920303e-03    2.466625e-01
   1.687025e+01   -1.054788e-02   -2.772823e-03    2.525128e-01
   1.693883e+01   -1.050518e-02   -3.614634e-03    2.581481e-01
   1.700740e+01   -1.046282e-02   -4.453338e-03    2.642332e-01
   1.707598e+01   -1.042080e-02   -5.281287e-03    2.700961e-01
   1.714456e+01   -1.037912e-02   -6.105962e-03    2.764213e-01
   1.721314e+01   -1.033777e-02   -6.919837e-03    2.825169e-01
   1.728172e+01   -1.029674e-02   -7.730276e-03    2.890874e-01
   1.735029e+01   -1.025604e-02   -8.529873e-03    2.954204e-01
   1.741887e+01   -1.021567e-02   -9.325877e-03    3.022411e-01
   1.748745e+01   -1.017561e-02   -1.011100e-02    3.088160e-01
   1.755603e+01   -1.013586e-02   -1.089237e-02    3.158915e-01
   1.762461e+01   -1.009642e-02   -1.166283e-02    3.227125e-01
   1.769319e+01   -1.005728e-02   -1.242939e-02    3.300469e-01
   1.776176e+01   -1.001845e-02   -1.318500e-02    3.371179e-01
   1.783034e+01   -9.979921e-03   -1.393657e-02    3.447152e-01
   1.789892e+01   -9.941683e-03   -1.467716e-02    3.520396e-01
   1.796750e+01   -9.903738e-03   -1.541357e-02    3.599031e-01
   1.803608e+01   -9.866081e-03   -1.613896e-02    3.674838e-01
   1.810466e+01   -9.828710e-03   -1.686005e-02    3.756165e-01
   1.817323e+01   -9.791620e-03   -1.757009e-02    3.834560e-01
   1.824181e+01   -9.754810e-03   -1.827570e-02    3.918602e-01
   1.831039e+01   -9.718275e-03   -1.897023e-02    3.999604e-01
   1.837897e+01   -9.682013e-03   -1.966021e-02    4.086381e-01
   1.844755e+01   -9.646020e-03   -2.033909e-02    4.170004e-01
   1.851612e+01   -9.610294e-03   -2.101329e-02    4.259527e-01
   1.858470e+01   -9.574832e-03   -2.167638e-02    4.345777e-01
   1.865328e+01   -9.539630e-03   -2.233468e-02    4.438052e-01
   1.872186e+01   -9.504686e-03   -2.298185e-02    4.526929e-01
   1.879044e+01   -9.469998e-03   -2.362412e-02    4.621954e-01
   1.885902e+01   -9.435561e-03   -2.425524e-02    4.713453e-01
   1.892759e+01   -9.401374e-03   -2.488136e-02    4.811219e-01
   1.899617e+01   -9.367434e-03   -2.549632e-02    4.905324e-01
   1.906475e+01   -9.333739e-03   -2.610618e-02    5.005813e-01
   1.913333e+01   -9.300284e-03   -2.670487e-02    5.102502e-01
   1.920191e+01   -9.267069e-03   -2.729836e-02    5.205690e-01
   1.927049e+01   -9.234090e-03   -2.788068e-02    5.304932e-01
   1.933906e+01   -9.201345e-03   -2.845771e-02    5.410784e-01
   1.940764e+01   -9.168832e-03   -2.902357e-02    5.512540e-01
   1.947622e+01   -9.136547e-03   -2.958405e-02    5.621013e-01
   1.954480e+01   -9.104489e-03   -3.013335e-02    5.725232e-01
   1.961338e+01   -9.072655e-03   -3.067721e-02    5.836274e-01
   1.968195e+01   -9.041043e-03   -3.120989e-02    5.942899e-01
   1.975053e+01   -9.009651e-03   -3.173704e-02    6.056447e-01
   1.981911e+01   -8.978475e-03   -3.225302e-02    6.165410e-01
   1.988769e+01   -8.947515e-03   -3.276341e-02    6.281390e-01
   1.995627e+01   -8.916768e-03   -3.326263e-02    6.392614e-01
   2.002485e+01   -8.886231e-03   -3.375620e-02    6.510944e-01
   2.009342e+01   -8.855902e-03   -3.423861e-02    6.624339e-01
   2.016200e+01   -8.825780e-03   -3.471530e-02    6.744927e-01
   2.023058e+01   -8.795862e-03   -3.518085e-02    6.860395e-01
   2.029916e+01   -8.766146e-03   -3.564063e-02    6.983134e-01
   2.036774e+01   -8.736631e-03   -3.608928e-02    7.100566e-01
   2.043632e+01   -8.707313e-03   -3.653211e-02    7.225344e-01
   2.050489e+01   -8.678192e-03   -3.696384e-02    7.344619e-01
   2.057347e+01   -8.649265e-03   -3.738969e-02    7.471309e-01
   2.064205e+01   -8.620529e-03   -3.780447e-02    7.592298e-01
   2.071063e+01   -8.591985e-03   -3.821333e-02    7.720763e-01
   2.077921e+01   -8.563628e-03   -3.861114e-02    7.843325e-01
   2.084778e+01   -8.535458e-03   -3.900300e-02    7.973417e-01
   2.091636e+01   -8.507473e-03   -3.938383e-02    8.097400e-01
   2.098494e+01   -8.479671e-03   -3.975869e-02    8.228963e-01
