# All units in Hartree [AU] if not specified
# Convergence: Err(φ)=3.991e-11, Err(n_e)=8.580e-11, Err(IET)=2.354e+08, Q_net=-3.850e-07
# {"name":"Ar", "Z":18, "Zstar":0.22566570330867108, "A":39.948,  "μ[AU]": -1.8421471668e-02, "Te[AU]": 1.903e-03, "Ti[AU]": 1.903e-03, "rs[AU]": 1.372e+01 }
   r[AU]           n[AU]           nf[AU]          nb[AU]          n_ion[AU]       φtot[AU]        δVxc/δρ[Au]     U_ei[AU]        U_ii[AU]        g_ii            
   1.000000e-04    7.298701e+06    7.812585e+00    7.298693e+06    0.000000e+00    1.799152e+05   -1.434897e+02   -1.745627e+01    2.076055e+00   -3.550607e-05
   1.005935e-04    7.234198e+06    6.688053e+00    7.234192e+06    0.000000e+00    1.788532e+05   -1.430663e+02   -1.567717e+01    2.076049e+00   -3.550550e-05
   1.011905e-04    7.170270e+06    1.029618e+01    7.170260e+06    0.000000e+00    1.777975e+05   -1.426443e+02   -2.111948e+01    2.076042e+00   -3.550493e-05
   1.017911e-04    7.106895e+06    2.205017e+00    7.106892e+06    0.000000e+00    1.767480e+05   -1.422233e+02   -7.236769e+00    2.076035e+00   -3.550436e-05
   1.023952e-04    7.044095e+06    9.756513e+00    7.044085e+06    0.000000e+00    1.757047e+05   -1.418038e+02   -2.034996e+01    2.076028e+00   -3.550379e-05
   1.030029e-04    6.981841e+06    7.556488e+00    6.981833e+06    0.000000e+00    1.746676e+05   -1.413853e+02   -1.705871e+01    2.076022e+00   -3.550321e-05
   1.036142e-04    6.920137e+06    6.351992e+00    6.920131e+06    0.000000e+00    1.736366e+05   -1.409682e+02   -1.512692e+01    2.076015e+00   -3.550263e-05
   1.042292e-04    6.858984e+06    9.870858e+00    6.858974e+06    0.000000e+00    1.726116e+05   -1.405523e+02   -2.051323e+01    2.076008e+00   -3.550205e-05
   1.048478e-04    6.798360e+06    2.235202e+00    6.798357e+06    0.000000e+00    1.715927e+05   -1.401375e+02   -7.306273e+00    2.076001e+00   -3.550146e-05
   1.054700e-04    6.738286e+06    9.317536e+00    6.738276e+06    0.000000e+00    1.705798e+05   -1.397241e+02   -1.971365e+01    2.075994e+00   -3.550087e-05
   1.060960e-04    6.678734e+06    7.318418e+00    6.678726e+06    0.000000e+00    1.695729e+05   -1.393119e+02   -1.668525e+01    2.075987e+00   -3.550027e-05
   1.067257e-04    6.619708e+06    6.025168e+00    6.619702e+06    0.000000e+00    1.685720e+05   -1.389008e+02   -1.458344e+01    2.075980e+00   -3.549968e-05
   1.073591e-04    6.561209e+06    9.487316e+00    6.561200e+06    0.000000e+00    1.675769e+05   -1.384910e+02   -1.996086e+01    2.075973e+00   -3.549907e-05
   1.079962e-04    6.503217e+06    2.260878e+00    6.503214e+06    0.000000e+00    1.665877e+05   -1.380824e+02   -7.365028e+00    2.075965e+00   -3.549847e-05
   1.086372e-04    6.445750e+06    8.904243e+00    6.445741e+06    0.000000e+00    1.656044e+05   -1.376750e+02   -1.910626e+01    2.075958e+00   -3.549786e-05
   1.092819e-04    6.388783e+06    7.062771e+00    6.388776e+06    0.000000e+00    1.646268e+05   -1.372688e+02   -1.627973e+01    2.075951e+00   -3.549725e-05
   1.099305e-04    6.332320e+06    5.717360e+00    6.332314e+06    0.000000e+00    1.636550e+05   -1.368638e+02   -1.406318e+01    2.075944e+00   -3.549663e-05
   1.105830e-04    6.276360e+06    9.109562e+00    6.276351e+06    0.000000e+00    1.626890e+05   -1.364600e+02   -1.940944e+01    2.075936e+00   -3.549601e-05
   1.112393e-04    6.220885e+06    2.282574e+00    6.220882e+06    0.000000e+00    1.617286e+05   -1.360573e+02   -7.414148e+00    2.075929e+00   -3.549539e-05
   1.118995e-04    6.165912e+06    8.511934e+00    6.165904e+06    0.000000e+00    1.607739e+05   -1.356560e+02   -1.852112e+01    2.075921e+00   -3.549476e-05
   1.125636e-04    6.111418e+06    6.834091e+00    6.111411e+06    0.000000e+00    1.598249e+05   -1.352557e+02   -1.591305e+01    2.075914e+00   -3.549413e-05
   1.132316e-04    6.057405e+06    5.404680e+00    6.057400e+06    0.000000e+00    1.588814e+05   -1.348566e+02   -1.352501e+01    2.075906e+00   -3.549349e-05
   1.139037e-04    6.003875e+06    8.742098e+00    6.003866e+06    0.000000e+00    1.579435e+05   -1.344588e+02   -1.886508e+01    2.075899e+00   -3.549286e-05
   1.145797e-04    5.950807e+06    2.291488e+00    5.950805e+06    0.000000e+00    1.570112e+05   -1.340620e+02   -7.434571e+00    2.075891e+00   -3.549221e-05
   1.152597e-04    5.898221e+06    8.133089e+00    5.898213e+06    0.000000e+00    1.560843e+05   -1.336665e+02   -1.794758e+01    2.075883e+00   -3.549157e-05
   1.159437e-04    5.846092e+06    6.617169e+00    5.846086e+06    0.000000e+00    1.551629e+05   -1.332722e+02   -1.556161e+01    2.075876e+00   -3.549092e-05
   1.166319e-04    5.794424e+06    5.126109e+00    5.794419e+06    0.000000e+00    1.542470e+05   -1.328789e+02   -1.303666e+01    2.075868e+00   -3.549026e-05
   1.173241e-04    5.743217e+06    8.395216e+00    5.743209e+06    0.000000e+00    1.533364e+05   -1.324869e+02   -1.834510e+01    2.075860e+00   -3.548961e-05
   1.180204e-04    5.692453e+06    2.305106e+00    5.692451e+06    0.000000e+00    1.524313e+05   -1.320960e+02   -7.465717e+00    2.075852e+00   -3.548895e-05
   1.187208e-04    5.642149e+06    7.765089e+00    5.642141e+06    0.000000e+00    1.515314e+05   -1.317063e+02   -1.738275e+01    2.075844e+00   -3.548828e-05
   1.194254e-04    5.592283e+06    6.395382e+00    5.592277e+06    0.000000e+00    1.506369e+05   -1.313177e+02   -1.519831e+01    2.075837e+00   -3.548761e-05
   1.201342e-04    5.542857e+06    4.853243e+00    5.542853e+06    0.000000e+00    1.497477e+05   -1.309303e+02   -1.255117e+01    2.075829e+00   -3.548694e-05
   1.208472e-04    5.493873e+06    8.064476e+00    5.493865e+06    0.000000e+00    1.488637e+05   -1.305440e+02   -1.784326e+01    2.075820e+00   -3.548626e-05
   1.215644e-04    5.445313e+06    2.322585e+00    5.445310e+06    0.000000e+00    1.479849e+05   -1.301588e+02   -7.505421e+00    2.075812e+00   -3.548558e-05
   1.222859e-04    5.397192e+06    7.417783e+00    5.397185e+06    0.000000e+00    1.471113e+05   -1.297748e+02   -1.684110e+01    2.075804e+00   -3.548489e-05
   1.230117e-04    5.349491e+06    6.190743e+00    5.349485e+06    0.000000e+00    1.462428e+05   -1.293919e+02   -1.485963e+01    2.075796e+00   -3.548420e-05
   1.237417e-04    5.302210e+06    4.585104e+00    5.302206e+06    0.000000e+00    1.453795e+05   -1.290102e+02   -1.206530e+01    2.075788e+00   -3.548351e-05
   1.244761e-04    5.255352e+06    7.740083e+00    5.255345e+06    0.000000e+00    1.445213e+05   -1.286296e+02   -1.734385e+01    2.075780e+00   -3.548281e-05
   1.252149e-04    5.208900e+06    2.328702e+00    5.208898e+06    0.000000e+00    1.436681e+05   -1.282501e+02   -7.519244e+00    2.075771e+00   -3.548211e-05
   1.259580e-04    5.162868e+06    7.090061e+00    5.162861e+06    0.000000e+00    1.428200e+05   -1.278717e+02   -1.632337e+01    2.075763e+00   -3.548141e-05
   1.267056e-04    5.117237e+06    5.990864e+00    5.117231e+06    0.000000e+00    1.419769e+05   -1.274944e+02   -1.452538e+01    2.075754e+00   -3.548070e-05
   1.274576e-04    5.072009e+06    4.343853e+00    5.072004e+06    0.000000e+00    1.411387e+05   -1.271183e+02   -1.162019e+01    2.075746e+00   -3.547998e-05
   1.282140e-04    5.027185e+06    7.427949e+00    5.027177e+06    0.000000e+00    1.403055e+05   -1.267433e+02   -1.685693e+01    2.075737e+00   -3.547926e-05
   1.289750e-04    4.982749e+06    2.331438e+00    4.982746e+06    0.000000e+00    1.394772e+05   -1.263693e+02   -7.525413e+00    2.075729e+00   -3.547854e-05
   1.297404e-04    4.938715e+06    6.768952e+00    4.938708e+06    0.000000e+00    1.386538e+05   -1.259965e+02   -1.580755e+01    2.075720e+00   -3.547781e-05
   1.305104e-04    4.895065e+06    5.795973e+00    4.895059e+06    0.000000e+00    1.378353e+05   -1.256248e+02   -1.419636e+01    2.075712e+00   -3.547708e-05
   1.312850e-04    4.851799e+06    4.106490e+00    4.851795e+06    0.000000e+00    1.370216e+05   -1.252541e+02   -1.117434e+01    2.075703e+00   -3.547635e-05
   1.320642e-04    4.808921e+06    7.142065e+00    4.808914e+06    0.000000e+00    1.362127e+05   -1.248846e+02   -1.640606e+01    2.075694e+00   -3.547561e-05
   1.328480e-04    4.766414e+06    2.331679e+00    4.766412e+06    0.000000e+00    1.354085e+05   -1.245161e+02   -7.525956e+00    2.075685e+00   -3.547486e-05
   1.336364e-04    4.724291e+06    6.463883e+00    4.724285e+06    0.000000e+00    1.346091e+05   -1.241488e+02   -1.531144e+01    2.075676e+00   -3.547411e-05
   1.344295e-04    4.682536e+06    5.602525e+00    4.682530e+06    0.000000e+00    1.338144e+05   -1.237825e+02   -1.386631e+01    2.075667e+00   -3.547336e-05
   1.352274e-04    4.641148e+06    3.879617e+00    4.641145e+06    0.000000e+00    1.330244e+05   -1.234173e+02   -1.074055e+01    2.075658e+00   -3.547260e-05
   1.360299e-04    4.600131e+06    6.851083e+00    4.600125e+06    0.000000e+00    1.322391e+05   -1.230533e+02   -1.594056e+01    2.075649e+00   -3.547184e-05
   1.368372e-04    4.559469e+06    2.329501e+00    4.559467e+06    0.000000e+00    1.314584e+05   -1.226902e+02   -7.521046e+00    2.075640e+00   -3.547107e-05
   1.376494e-04    4.519175e+06    6.173869e+00    4.519169e+06    0.000000e+00    1.306823e+05   -1.223282e+02   -1.483154e+01    2.075631e+00   -3.547030e-05
   1.384663e-04    4.479232e+06    5.426894e+00    4.479227e+06    0.000000e+00    1.299108e+05   -1.219673e+02   -1.356335e+01    2.075622e+00   -3.546953e-05
   1.392881e-04    4.439641e+06    3.658482e+00    4.439637e+06    0.000000e+00    1.291438e+05   -1.216075e+02   -1.031045e+01    2.075613e+00   -3.546875e-05
   1.401148e-04    4.400404e+06    6.577933e+00    4.400398e+06    0.000000e+00    1.283814e+05   -1.212487e+02   -1.549713e+01    2.075603e+00   -3.546796e-05
   1.409463e-04    4.361507e+06    2.318571e+00    4.361505e+06    0.000000e+00    1.276235e+05   -1.208910e+02   -7.496329e+00    2.075594e+00   -3.546717e-05
   1.417828e-04    4.322962e+06    5.893941e+00    4.322956e+06    0.000000e+00    1.268700e+05   -1.205344e+02   -1.436290e+01    2.075584e+00   -3.546638e-05
   1.426243e-04    4.284753e+06    5.249109e+00    4.284748e+06    0.000000e+00    1.261210e+05   -1.201788e+02   -1.325355e+01    2.075575e+00   -3.546558e-05
   1.434708e-04    4.246880e+06    3.456211e+00    4.246877e+06    0.000000e+00    1.253764e+05   -1.198242e+02   -9.909805e+00    2.075565e+00   -3.546477e-05
   1.443223e-04    4.209347e+06    6.319157e+00    4.209341e+06    0.000000e+00    1.246362e+05   -1.194707e+02   -1.507305e+01    2.075556e+00   -3.546396e-05
   1.451788e-04    4.172138e+06    2.311362e+00    4.172136e+06    0.000000e+00    1.239003e+05   -1.191182e+02   -7.479963e+00    2.075546e+00   -3.546315e-05
   1.460404e-04    4.135266e+06    5.621681e+00    4.135260e+06    0.000000e+00    1.231688e+05   -1.187668e+02   -1.389890e+01    2.075536e+00   -3.546233e-05
   1.469072e-04    4.098715e+06    5.077242e+00    4.098710e+06    0.000000e+00    1.224416e+05   -1.184164e+02   -1.295086e+01    2.075527e+00   -3.546151e-05
   1.477791e-04    4.062487e+06    3.253019e+00    4.062483e+06    0.000000e+00    1.217187e+05   -1.180671e+02   -9.499644e+00    2.075517e+00   -3.546068e-05
   1.486561e-04    4.026582e+06    6.066688e+00    4.026576e+06    0.000000e+00    1.210001e+05   -1.177188e+02   -1.465333e+01    2.075507e+00   -3.545985e-05
   1.495384e-04    3.990989e+06    2.312146e+00    3.990987e+06    0.000000e+00    1.202857e+05   -1.173714e+02   -7.481745e+00    2.075497e+00   -3.545901e-05
   1.504259e-04    3.955717e+06    5.366746e+00    3.955712e+06    0.000000e+00    1.195755e+05   -1.170252e+02   -1.345917e+01    2.075487e+00   -3.545817e-05
   1.513187e-04    3.920753e+06    4.916690e+00    3.920748e+06    0.000000e+00    1.188696e+05   -1.166800e+02   -1.266509e+01    2.075477e+00   -3.545732e-05
   1.522167e-04    3.886097e+06    3.069466e+00    3.886094e+06    0.000000e+00    1.181677e+05   -1.163357e+02   -9.122153e+00    2.075467e+00   -3.545647e-05
   1.531201e-04    3.851751e+06    5.818838e+00    3.851745e+06    0.000000e+00    1.174701e+05   -1.159925e+02   -1.423512e+01    2.075457e+00   -3.545561e-05
   1.540289e-04    3.817703e+06    2.295845e+00    3.817701e+06    0.000000e+00    1.167765e+05   -1.156503e+02   -7.444557e+00    2.075446e+00   -3.545475e-05
   1.549430e-04    3.783962e+06    5.126006e+00    3.783957e+06    0.000000e+00    1.160870e+05   -1.153091e+02   -1.303648e+01    2.075436e+00   -3.545388e-05
   1.558626e-04    3.750515e+06    4.751028e+00    3.750511e+06    0.000000e+00    1.154016e+05   -1.149690e+02   -1.236712e+01    2.075426e+00   -3.545301e-05
   1.567877e-04    3.717363e+06    2.894566e+00    3.717360e+06    0.000000e+00    1.147203e+05   -1.146298e+02   -8.755747e+00    2.075415e+00   -3.545213e-05
   1.577182e-04    3.684509e+06    5.588777e+00    3.684503e+06    0.000000e+00    1.140429e+05   -1.142916e+02   -1.384285e+01    2.075405e+00   -3.545125e-05
   1.586542e-04    3.651938e+06    2.277243e+00    3.651936e+06    0.000000e+00    1.133696e+05   -1.139544e+02   -7.402122e+00    2.075394e+00   -3.545036e-05
   1.595958e-04    3.619662e+06    4.884850e+00    3.619657e+06    0.000000e+00    1.127002e+05   -1.136183e+02   -1.260810e+01    2.075384e+00   -3.544946e-05
   1.605430e-04    3.587667e+06    4.595703e+00    3.587663e+06    0.000000e+00    1.120348e+05   -1.132831e+02   -1.208471e+01    2.075373e+00   -3.544856e-05
   1.614958e-04    3.555954e+06    2.717195e+00    3.555951e+06    0.000000e+00    1.113733e+05   -1.129488e+02   -8.377048e+00    2.075362e+00   -3.544766e-05
   1.624543e-04    3.524526e+06    5.370148e+00    3.524520e+06    0.000000e+00    1.107157e+05   -1.126157e+02   -1.346509e+01    2.075351e+00   -3.544675e-05
   1.634185e-04    3.493369e+06    2.262728e+00    3.493367e+06    0.000000e+00    1.100620e+05   -1.122834e+02   -7.369236e+00    2.075341e+00   -3.544583e-05
   1.643883e-04    3.462493e+06    4.663764e+00    3.462489e+06    0.000000e+00    1.094122e+05   -1.119522e+02   -1.220826e+01    2.075330e+00   -3.544491e-05
   1.653640e-04    3.431888e+06    4.448288e+00    3.431883e+06    0.000000e+00    1.087661e+05   -1.116219e+02   -1.181384e+01    2.075319e+00   -3.544399e-05
   1.663454e-04    3.401551e+06    2.548949e+00    3.401549e+06    0.000000e+00    1.081239e+05   -1.112926e+02   -8.010619e+00    2.075308e+00   -3.544306e-05
   1.673327e-04    3.371487e+06    5.150129e+00    3.371482e+06    0.000000e+00    1.074855e+05   -1.109643e+02   -1.307934e+01    2.075296e+00   -3.544212e-05
   1.683258e-04    3.341683e+06    2.251044e+00    3.341681e+06    0.000000e+00    1.068508e+05   -1.106369e+02   -7.342607e+00    2.075285e+00   -3.544118e-05
   1.693248e-04    3.312147e+06    4.441822e+00    3.312143e+06    0.000000e+00    1.062199e+05   -1.103105e+02   -1.180187e+01    2.075274e+00   -3.544023e-05
   1.703297e-04    3.282870e+06    4.308966e+00    3.282866e+06    0.000000e+00    1.055928e+05   -1.099851e+02   -1.155523e+01    2.075263e+00   -3.543927e-05
   1.713406e-04    3.253850e+06    2.392516e+00    3.253848e+06    0.000000e+00    1.049693e+05   -1.096606e+02   -7.663071e+00    2.075251e+00   -3.543831e-05
   1.723575e-04    3.225091e+06    4.943528e+00    3.225086e+06    0.000000e+00    1.043495e+05   -1.093371e+02   -1.271283e+01    2.075240e+00   -3.543735e-05
   1.733804e-04    3.196581e+06    2.228243e+00    3.196579e+06    0.000000e+00    1.037333e+05   -1.090145e+02   -7.290230e+00    2.075228e+00   -3.543638e-05
   1.744094e-04    3.168327e+06    4.232697e+00    3.168323e+06    0.000000e+00    1.031208e+05   -1.086930e+02   -1.141229e+01    2.075217e+00   -3.543540e-05
   1.754445e-04    3.140321e+06    4.163704e+00    3.140317e+06    0.000000e+00    1.025119e+05   -1.083723e+02   -1.128270e+01    2.075205e+00   -3.543442e-05
   1.764858e-04    3.112561e+06    2.245433e+00    3.112559e+06    0.000000e+00    1.019066e+05   -1.080526e+02   -7.329767e+00    2.075193e+00   -3.543343e-05
   1.775332e-04    3.085050e+06    4.747027e+00    3.085045e+06    0.000000e+00    1.013048e+05   -1.077338e+02   -1.235989e+01    2.075181e+00   -3.543244e-05
   1.785869e-04    3.057777e+06    2.213356e+00    3.057775e+06    0.000000e+00    1.007067e+05   -1.074160e+02   -7.255768e+00    2.075170e+00   -3.543144e-05
   1.796468e-04    3.030750e+06    4.034941e+00    3.030746e+06    0.000000e+00    1.001120e+05   -1.070991e+02   -1.103867e+01    2.075158e+00   -3.543043e-05
   1.807130e-04    3.003960e+06    4.031901e+00    3.003956e+06    0.000000e+00    9.952085e+04   -1.067832e+02   -1.103285e+01    2.075146e+00   -3.542942e-05
   1.817855e-04    2.977404e+06    2.098230e+00    2.977402e+06    0.000000e+00    9.893319e+04   -1.064681e+02   -6.989237e+00    2.075134e+00   -3.542840e-05
   1.828644e-04    2.951088e+06    4.555823e+00    2.951083e+06    0.000000e+00    9.834899e+04   -1.061541e+02   -1.201144e+01    2.075121e+00   -3.542738e-05
   1.839497e-04    2.924999e+06    2.195440e+00    2.924997e+06    0.000000e+00    9.776825e+04   -1.058409e+02   -7.214856e+00    2.075109e+00   -3.542635e-05
   1.850414e-04    2.899145e+06    3.844523e+00    2.899141e+06    0.000000e+00    9.719093e+04   -1.055287e+02   -1.067320e+01    2.075097e+00   -3.542531e-05
   1.861396e-04    2.873517e+06    3.904101e+00    2.873513e+06    0.000000e+00    9.661701e+04   -1.052174e+02   -1.078810e+01    2.075084e+00   -3.542427e-05
   1.872443e-04    2.848114e+06    1.964795e+00    2.848112e+06    0.000000e+00    9.604648e+04   -1.049069e+02   -6.674063e+00    2.075072e+00   -3.542322e-05
   1.883556e-04    2.822940e+06    4.368019e+00    2.822936e+06    0.000000e+00    9.547932e+04   -1.045975e+02   -1.166487e+01    2.075059e+00   -3.542217e-05
   1.894735e-04    2.797984e+06    2.169773e+00    2.797982e+06    0.000000e+00    9.491550e+04   -1.042889e+02   -7.155646e+00    2.075047e+00   -3.542111e-05
   1.905980e-04    2.773252e+06    3.664317e+00    2.773248e+06    0.000000e+00    9.435501e+04   -1.039813e+02   -1.032199e+01    2.075034e+00   -3.542004e-05
   1.917292e-04    2.748737e+06    3.773243e+00    2.748733e+06    0.000000e+00    9.379783e+04   -1.036745e+02   -1.053476e+01    2.075021e+00   -3.541897e-05
   1.928671e-04    2.724437e+06    1.837550e+00    2.724435e+06    0.000000e+00    9.324393e+04   -1.033686e+02   -6.367173e+00    2.075009e+00   -3.541789e-05
   1.940117e-04    2.700355e+06    4.195246e+00    2.700351e+06    0.000000e+00    9.269330e+04   -1.030637e+02   -1.134221e+01    2.074996e+00   -3.541680e-05
   1.951632e-04    2.676482e+06    2.150204e+00    2.676480e+06    0.000000e+00    9.214592e+04   -1.027597e+02   -7.110020e+00    2.074983e+00   -3.541571e-05
   1.963215e-04    2.652824e+06    3.485962e+00    2.652820e+06    0.000000e+00    9.160177e+04   -1.024565e+02   -9.969283e+00    2.074970e+00   -3.541461e-05
   1.974866e-04    2.629373e+06    3.652127e+00    2.629369e+06    0.000000e+00    9.106083e+04   -1.021543e+02   -1.029786e+01    2.074957e+00   -3.541350e-05
   1.986587e-04    2.606127e+06    1.708892e+00    2.606126e+06    0.000000e+00    9.052309e+04   -1.018529e+02   -6.050623e+00    2.074943e+00   -3.541239e-05
   1.998377e-04    2.583091e+06    4.025142e+00    2.583087e+06    0.000000e+00    8.998851e+04   -1.015525e+02   -1.101989e+01    2.074930e+00   -3.541127e-05
   2.010238e-04    2.560255e+06    2.120610e+00    2.560253e+06    0.000000e+00    8.945709e+04   -1.012529e+02   -7.041525e+00    2.074917e+00   -3.541015e-05
   2.022168e-04    2.537623e+06    3.322141e+00    2.537620e+06    0.000000e+00    8.892881e+04   -1.009542e+02   -9.639626e+00    2.074903e+00   -3.540902e-05
   2.034170e-04    2.515190e+06    3.532434e+00    2.515187e+06    0.000000e+00    8.840364e+04   -1.006564e+02   -1.006123e+01    2.074890e+00   -3.540788e-05
   2.046242e-04    2.492954e+06    1.585353e+00    2.492952e+06    0.000000e+00    8.788157e+04   -1.003594e+02   -5.739320e+00    2.074876e+00   -3.540673e-05
