# All units in Hartree [AU] if not specified
# Convergence: Err(φ)=4.105e-11, Err(n_e)=9.970e-11, Err(IET)=9.364e-13, Q_net=2.380e-07
# {"name":"Ar", "Z":18, "Zstar":0.0713484970915772, "A":39.948,  "μ[AU]": -2.6749541841e-02, "Te[AU]": 6.726e-03, "Ti[AU]": 6.726e-03, "rs[AU]": 1.372e+01 }
   r[AU]           n[AU]           nf[AU]          nb[AU]          n_ion[AU]       φtot[AU]        δVxc/δρ[Au]     U_ei[AU]        U_ii[AU]        g_ii            
   1.000000e-04    7.298696e+06    1.502420e+00    7.298694e+06    0.000000e+00    1.799153e+05   -1.434897e+02   -5.432790e+00    2.094664e-01   -2.667457e-02
   1.005935e-04    7.234201e+06    8.431173e+00    7.234193e+06    0.000000e+00    1.788533e+05   -1.430664e+02   -1.830573e+01    2.094657e-01   -2.667413e-02
   1.011905e-04    7.170268e+06    7.179276e+00    7.170261e+06    0.000000e+00    1.777975e+05   -1.426442e+02   -1.637109e+01    2.094650e-01   -2.667370e-02
   1.017911e-04    7.106896e+06    2.323321e+00    7.106893e+06    0.000000e+00    1.767481e+05   -1.422233e+02   -7.413629e+00    2.094642e-01   -2.667326e-02
   1.023952e-04    7.044095e+06    8.406557e+00    7.044086e+06    0.000000e+00    1.757048e+05   -1.418038e+02   -1.826826e+01    2.094635e-01   -2.667282e-02
   1.030029e-04    6.981841e+06    6.530702e+00    6.981834e+06    0.000000e+00    1.746676e+05   -1.413853e+02   -1.532693e+01    2.094628e-01   -2.667237e-02
   1.036142e-04    6.920135e+06    3.054262e+00    6.920132e+06    0.000000e+00    1.736366e+05   -1.409682e+02   -8.997166e+00    2.094621e-01   -2.667193e-02
   1.042292e-04    6.858983e+06    8.326015e+00    6.858975e+06    0.000000e+00    1.726116e+05   -1.405523e+02   -1.814744e+01    2.094614e-01   -2.667148e-02
   1.048478e-04    6.798364e+06    5.884424e+00    6.798358e+06    0.000000e+00    1.715927e+05   -1.401376e+02   -1.425342e+01    2.094606e-01   -2.667103e-02
   1.054700e-04    6.738281e+06    3.667711e+00    6.738277e+06    0.000000e+00    1.705799e+05   -1.397241e+02   -1.023543e+01    2.094599e-01   -2.667058e-02
   1.060960e-04    6.678735e+06    8.201476e+00    6.678727e+06    0.000000e+00    1.695730e+05   -1.393119e+02   -1.795838e+01    2.094592e-01   -2.667012e-02
   1.067257e-04    6.619708e+06    5.192187e+00    6.619703e+06    0.000000e+00    1.685720e+05   -1.389008e+02   -1.306041e+01    2.094584e-01   -2.666966e-02
   1.073591e-04    6.561205e+06    4.215695e+00    6.561201e+06    0.000000e+00    1.675769e+05   -1.384910e+02   -1.128697e+01    2.094577e-01   -2.666920e-02
   1.079962e-04    6.503223e+06    8.010880e+00    6.503215e+06    0.000000e+00    1.665877e+05   -1.380824e+02   -1.766785e+01    2.094569e-01   -2.666873e-02
   1.086372e-04    6.445747e+06    4.492521e+00    6.445742e+06    0.000000e+00    1.656044e+05   -1.376750e+02   -1.180164e+01    2.094562e-01   -2.666827e-02
   1.092819e-04    6.388782e+06    4.686864e+00    6.388777e+06    0.000000e+00    1.646268e+05   -1.372688e+02   -1.215722e+01    2.094554e-01   -2.666779e-02
   1.099305e-04    6.332323e+06    7.785269e+00    6.332315e+06    0.000000e+00    1.636550e+05   -1.368638e+02   -1.732067e+01    2.094547e-01   -2.666732e-02
   1.105830e-04    6.276356e+06    3.795740e+00    6.276352e+06    0.000000e+00    1.626890e+05   -1.364600e+02   -1.048541e+01    2.094539e-01   -2.666685e-02
   1.112393e-04    6.220888e+06    5.075916e+00    6.220883e+06    0.000000e+00    1.617286e+05   -1.360574e+02   -1.285494e+01    2.094531e-01   -2.666637e-02
   1.118995e-04    6.165912e+06    7.528031e+00    6.165905e+06    0.000000e+00    1.607740e+05   -1.356560e+02   -1.692088e+01    2.094523e-01   -2.666589e-02
   1.125636e-04    6.111415e+06    3.057056e+00    6.111412e+06    0.000000e+00    1.598249e+05   -1.352557e+02   -9.002975e+00    2.094516e-01   -2.666540e-02
   1.132316e-04    6.057406e+06    5.401501e+00    6.057401e+06    0.000000e+00    1.588814e+05   -1.348566e+02   -1.342592e+01    2.094508e-01   -2.666491e-02
   1.139037e-04    6.003874e+06    7.211553e+00    6.003867e+06    0.000000e+00    1.579436e+05   -1.344588e+02   -1.642231e+01    2.094500e-01   -2.666442e-02
   1.145797e-04    5.950808e+06    2.331569e+00    5.950806e+06    0.000000e+00    1.570112e+05   -1.340620e+02   -7.432201e+00    2.094492e-01   -2.666393e-02
   1.152597e-04    5.898220e+06    5.640139e+00    5.898214e+06    0.000000e+00    1.560843e+05   -1.336665e+02   -1.383746e+01    2.094484e-01   -2.666344e-02
   1.159437e-04    5.846093e+06    6.888611e+00    5.846087e+06    0.000000e+00    1.551630e+05   -1.332722e+02   -1.590763e+01    2.094476e-01   -2.666294e-02
   1.166319e-04    5.794421e+06    1.585907e+00    5.794420e+06    0.000000e+00    1.542470e+05   -1.328789e+02   -5.647394e+00    2.094468e-01   -2.666243e-02
   1.173241e-04    5.743215e+06    5.837759e+00    5.743209e+06    0.000000e+00    1.533365e+05   -1.324869e+02   -1.417431e+01    2.094460e-01   -2.666193e-02
   1.180204e-04    5.692458e+06    6.511674e+00    5.692452e+06    0.000000e+00    1.524313e+05   -1.320960e+02   -1.529604e+01    2.094451e-01   -2.666142e-02
   1.187208e-04    5.642143e+06    8.494847e-01    5.642142e+06    0.000000e+00    1.515315e+05   -1.317063e+02   -3.599290e+00    2.094443e-01   -2.666091e-02
   1.194254e-04    5.592284e+06    5.974693e+00    5.592278e+06    0.000000e+00    1.506369e+05   -1.313177e+02   -1.440488e+01    2.094435e-01   -2.666040e-02
   1.201342e-04    5.542860e+06    6.115304e+00    5.542853e+06    0.000000e+00    1.497477e+05   -1.309303e+02   -1.464097e+01    2.094426e-01   -2.665988e-02
   1.208472e-04    5.493866e+06    2.534625e-01    5.493866e+06    0.000000e+00    1.488637e+05   -1.305439e+02   -1.463810e+00    2.094418e-01   -2.665936e-02
   1.215644e-04    5.445317e+06    6.058111e+00    5.445311e+06    0.000000e+00    1.479849e+05   -1.301588e+02   -1.454561e+01    2.094410e-01   -2.665884e-02
   1.222859e-04    5.397192e+06    5.708440e+00    5.397186e+06    0.000000e+00    1.471113e+05   -1.297748e+02   -1.395455e+01    2.094401e-01   -2.665831e-02
   1.230117e-04    5.349486e+06    9.195696e-01    5.349486e+06    0.000000e+00    1.462429e+05   -1.293919e+02   -3.812658e+00    2.094393e-01   -2.665778e-02
   1.237417e-04    5.302213e+06    6.103264e+00    5.302207e+06    0.000000e+00    1.453795e+05   -1.290102e+02   -1.462097e+01    2.094384e-01   -2.665725e-02
   1.244761e-04    5.255351e+06    5.263065e+00    5.255346e+06    0.000000e+00    1.445213e+05   -1.286296e+02   -1.318413e+01    2.094375e-01   -2.665671e-02
   1.252149e-04    5.208900e+06    1.532924e+00    5.208899e+06    0.000000e+00    1.436682e+05   -1.282501e+02   -5.511598e+00    2.094367e-01   -2.665618e-02
   1.259580e-04    5.162868e+06    6.082655e+00    5.162862e+06    0.000000e+00    1.428200e+05   -1.278717e+02   -1.458664e+01    2.094358e-01   -2.665563e-02
   1.267056e-04    5.117237e+06    4.813828e+00    5.117232e+06    0.000000e+00    1.419769e+05   -1.274944e+02   -1.238659e+01    2.094349e-01   -2.665509e-02
   1.274576e-04    5.072007e+06    2.066727e+00    5.072005e+06    0.000000e+00    1.411388e+05   -1.271183e+02   -6.821817e+00    2.094340e-01   -2.665454e-02
   1.282140e-04    5.027184e+06    6.029986e+00    5.027178e+06    0.000000e+00    1.403055e+05   -1.267433e+02   -1.449838e+01    2.094331e-01   -2.665399e-02
   1.289750e-04    4.982752e+06    4.334093e+00    4.982747e+06    0.000000e+00    1.394773e+05   -1.263693e+02   -1.150856e+01    2.094322e-01   -2.665343e-02
   1.297404e-04    4.938712e+06    2.534318e+00    4.938709e+06    0.000000e+00    1.386539e+05   -1.259965e+02   -7.885001e+00    2.094313e-01   -2.665288e-02
   1.305104e-04    4.895066e+06    5.941338e+00    4.895060e+06    0.000000e+00    1.378353e+05   -1.256248e+02   -1.434904e+01    2.094304e-01   -2.665231e-02
   1.312850e-04    4.851800e+06    3.838717e+00    4.851796e+06    0.000000e+00    1.370216e+05   -1.252541e+02   -1.056846e+01    2.094295e-01   -2.665175e-02
   1.320642e-04    4.808918e+06    2.944082e+00    4.808915e+06    0.000000e+00    1.362127e+05   -1.248846e+02   -8.766693e+00    2.094286e-01   -2.665118e-02
   1.328480e-04    4.766418e+06    5.813000e+00    4.766413e+06    0.000000e+00    1.354085e+05   -1.245162e+02   -1.413208e+01    2.094277e-01   -2.665061e-02
   1.336364e-04    4.724289e+06    3.344193e+00    4.724286e+06    0.000000e+00    1.346091e+05   -1.241488e+02   -9.591280e+00    2.094268e-01   -2.665004e-02
   1.344295e-04    4.682534e+06    3.278951e+00    4.682531e+06    0.000000e+00    1.338144e+05   -1.237825e+02   -9.458928e+00    2.094258e-01   -2.664946e-02
   1.352274e-04    4.641151e+06    5.666551e+00    4.641145e+06    0.000000e+00    1.330245e+05   -1.234174e+02   -1.388291e+01    2.094249e-01   -2.664888e-02
   1.360299e-04    4.600128e+06    2.830358e+00    4.600125e+06    0.000000e+00    1.322391e+05   -1.230532e+02   -8.525673e+00    2.094239e-01   -2.664829e-02
   1.368372e-04    4.559471e+06    3.573660e+00    4.559468e+06    0.000000e+00    1.314584e+05   -1.226902e+02   -1.005012e+01    2.094230e-01   -2.664770e-02
   1.376494e-04    4.519175e+06    5.473643e+00    4.519170e+06    0.000000e+00    1.306823e+05   -1.223282e+02   -1.355097e+01    2.094220e-01   -2.664711e-02
   1.384663e-04    4.479230e+06    2.321683e+00    4.479227e+06    0.000000e+00    1.299108e+05   -1.219673e+02   -7.409935e+00    2.094211e-01   -2.664651e-02
   1.392881e-04    4.439642e+06    3.816947e+00    4.439638e+06    0.000000e+00    1.291439e+05   -1.216075e+02   -1.052651e+01    2.094201e-01   -2.664591e-02
   1.401148e-04    4.400404e+06    5.261934e+00    4.400399e+06    0.000000e+00    1.283814e+05   -1.212487e+02   -1.318217e+01    2.094191e-01   -2.664531e-02
   1.409463e-04    4.361508e+06    1.797836e+00    4.361506e+06    0.000000e+00    1.276235e+05   -1.208910e+02   -6.177078e+00    2.094181e-01   -2.664471e-02
   1.417828e-04    4.322961e+06    4.011735e+00    4.322957e+06    0.000000e+00    1.268700e+05   -1.205344e+02   -1.090096e+01    2.094172e-01   -2.664410e-02
   1.426243e-04    4.284754e+06    5.031667e+00    4.284748e+06    0.000000e+00    1.261210e+05   -1.201788e+02   -1.277671e+01    2.094162e-01   -2.664348e-02
   1.434708e-04    4.246879e+06    1.257297e+00    4.246878e+06    0.000000e+00    1.253764e+05   -1.198242e+02   -4.780117e+00    2.094152e-01   -2.664287e-02
   1.443223e-04    4.209346e+06    4.165221e+00    4.209341e+06    0.000000e+00    1.246362e+05   -1.194707e+02   -1.119226e+01    2.094142e-01   -2.664225e-02
   1.451788e-04    4.172142e+06    4.763656e+00    4.172137e+06    0.000000e+00    1.239003e+05   -1.191182e+02   -1.229637e+01    2.094132e-01   -2.664162e-02
   1.460404e-04    4.135262e+06    7.305836e-01    4.135261e+06    0.000000e+00    1.231688e+05   -1.187668e+02   -3.224486e+00    2.094121e-01   -2.664099e-02
   1.469072e-04    4.098715e+06    4.263179e+00    4.098711e+06    0.000000e+00    1.224417e+05   -1.184164e+02   -1.137603e+01    2.094111e-01   -2.664036e-02
   1.477791e-04    4.062489e+06    4.495543e+00    4.062484e+06    0.000000e+00    1.217188e+05   -1.180671e+02   -1.180715e+01    2.094101e-01   -2.663973e-02
   1.486561e-04    4.026577e+06    1.912629e-01    4.026577e+06    0.000000e+00    1.210001e+05   -1.177187e+02   -1.179425e+00    2.094091e-01   -2.663909e-02
   1.495384e-04    3.990992e+06    4.337147e+00    3.990988e+06    0.000000e+00    1.202857e+05   -1.173715e+02   -1.151422e+01    2.094080e-01   -2.663844e-02
   1.504259e-04    3.955717e+06    4.196599e+00    3.955712e+06    0.000000e+00    1.195756e+05   -1.170252e+02   -1.125128e+01    2.094070e-01   -2.663780e-02
   1.513187e-04    3.920749e+06    4.664916e-01    3.920749e+06    0.000000e+00    1.188696e+05   -1.166799e+02   -2.316297e+00    2.094059e-01   -2.663715e-02
   1.522167e-04    3.886099e+06    4.371646e+00    3.886094e+06    0.000000e+00    1.181678e+05   -1.163357e+02   -1.157785e+01    2.094049e-01   -2.663649e-02
   1.531201e-04    3.851750e+06    3.880495e+00    3.851746e+06    0.000000e+00    1.174701e+05   -1.159925e+02   -1.064912e+01    2.094038e-01   -2.663583e-02
   1.540289e-04    3.817702e+06    9.225012e-01    3.817701e+06    0.000000e+00    1.167765e+05   -1.156503e+02   -3.821391e+00    2.094027e-01   -2.663517e-02
   1.549430e-04    3.783962e+06    4.373676e+00    3.783957e+06    0.000000e+00    1.160871e+05   -1.153091e+02   -1.158163e+01    2.094017e-01   -2.663450e-02
   1.558626e-04    3.750515e+06    3.563341e+00    3.750512e+06    0.000000e+00    1.154017e+05   -1.149690e+02   -1.002968e+01    2.094006e-01   -2.663383e-02
   1.567877e-04    3.717363e+06    1.312617e+00    3.717361e+06    0.000000e+00    1.147203e+05   -1.146298e+02   -4.930749e+00    2.093995e-01   -2.663316e-02
   1.577182e-04    3.684508e+06    4.353189e+00    3.684504e+06    0.000000e+00    1.140430e+05   -1.142916e+02   -1.154387e+01    2.093984e-01   -2.663248e-02
   1.586542e-04    3.651940e+06    3.223268e+00    3.651937e+06    0.000000e+00    1.133696e+05   -1.139544e+02   -9.345354e+00    2.093973e-01   -2.663180e-02
   1.595958e-04    3.619659e+06    1.668268e+00    3.619658e+06    0.000000e+00    1.127002e+05   -1.136182e+02   -5.855387e+00    2.093962e-01   -2.663111e-02
   1.605430e-04    3.587668e+06    4.289984e+00    3.587664e+06    0.000000e+00    1.120348e+05   -1.132831e+02   -1.142639e+01    2.093951e-01   -2.663042e-02
   1.614958e-04    3.555955e+06    2.883062e+00    3.555952e+06    0.000000e+00    1.113733e+05   -1.129489e+02   -8.638008e+00    2.093940e-01   -2.662973e-02
   1.624543e-04    3.524523e+06    1.968049e+00    3.524521e+06    0.000000e+00    1.107157e+05   -1.126156e+02   -6.588567e+00    2.093928e-01   -2.662903e-02
   1.634185e-04    3.493372e+06    4.208738e+00    3.493368e+06    0.000000e+00    1.100620e+05   -1.122834e+02   -1.127399e+01    2.093917e-01   -2.662833e-02
   1.643883e-04    3.462492e+06    2.525712e+00    3.462490e+06    0.000000e+00    1.094122e+05   -1.119522e+02   -7.865988e+00    2.093905e-01   -2.662762e-02
   1.653640e-04    3.431886e+06    2.236015e+00    3.431884e+06    0.000000e+00    1.087662e+05   -1.116219e+02   -7.214796e+00    2.093894e-01   -2.662691e-02
   1.663454e-04    3.401553e+06    4.104796e+00    3.401549e+06    0.000000e+00    1.081239e+05   -1.112926e+02   -1.107748e+01    2.093882e-01   -2.662619e-02
   1.673327e-04    3.371485e+06    2.160097e+00    3.371483e+06    0.000000e+00    1.074855e+05   -1.109643e+02   -7.039837e+00    2.093871e-01   -2.662548e-02
   1.683258e-04    3.341684e+06    2.462890e+00    3.341681e+06    0.000000e+00    1.068509e+05   -1.106369e+02   -7.726865e+00    2.093859e-01   -2.662475e-02
   1.693248e-04    3.312148e+06    3.977255e+00    3.312144e+06    0.000000e+00    1.062200e+05   -1.103105e+02   -1.083472e+01    2.093847e-01   -2.662402e-02
   1.703297e-04    3.282869e+06    1.796202e+00    3.282867e+06    0.000000e+00    1.055928e+05   -1.099851e+02   -6.173063e+00    2.093835e-01   -2.662329e-02
   1.713406e-04    3.253851e+06    2.640589e+00    3.253849e+06    0.000000e+00    1.049693e+05   -1.096606e+02   -8.117550e+00    2.093824e-01   -2.662256e-02
   1.723575e-04    3.225091e+06    3.839805e+00    3.225087e+06    0.000000e+00    1.043495e+05   -1.093371e+02   -1.057055e+01    2.093812e-01   -2.662181e-02
   1.733804e-04    3.196581e+06    1.421651e+00    3.196579e+06    0.000000e+00    1.037333e+05   -1.090145e+02   -5.221516e+00    2.093800e-01   -2.662107e-02
   1.744094e-04    3.168327e+06    2.801181e+00    3.168324e+06    0.000000e+00    1.031208e+05   -1.086930e+02   -8.463844e+00    2.093787e-01   -2.662032e-02
   1.754445e-04    3.140321e+06    3.675251e+00    3.140318e+06    0.000000e+00    1.025119e+05   -1.083723e+02   -1.025026e+01    2.093775e-01   -2.661956e-02
   1.764858e-04    3.112560e+06    1.054145e+00    3.112559e+06    0.000000e+00    1.019066e+05   -1.080526e+02   -4.209439e+00    2.093763e-01   -2.661881e-02
   1.775332e-04    3.085049e+06    2.914885e+00    3.085046e+06    0.000000e+00    1.013049e+05   -1.077338e+02   -8.704826e+00    2.093751e-01   -2.661804e-02
   1.785869e-04    3.057779e+06    3.495849e+00    3.057776e+06    0.000000e+00    1.007067e+05   -1.074160e+02   -9.895383e+00    2.093738e-01   -2.661728e-02
   1.796468e-04    3.030747e+06    6.774241e-01    3.030747e+06    0.000000e+00    1.001120e+05   -1.070991e+02   -3.050845e+00    2.093726e-01   -2.661650e-02
   1.807130e-04    3.003959e+06    3.005697e+00    3.003956e+06    0.000000e+00    9.952087e+04   -1.067832e+02   -8.895505e+00    2.093713e-01   -2.661573e-02
   1.817855e-04    2.977406e+06    3.304514e+00    2.977403e+06    0.000000e+00    9.893321e+04   -1.064682e+02   -9.510413e+00    2.093701e-01   -2.661495e-02
   1.828644e-04    2.951084e+06    2.912295e-01    2.951084e+06    0.000000e+00    9.834901e+04   -1.061540e+02   -1.626652e+00    2.093688e-01   -2.661416e-02
   1.839497e-04    2.925000e+06    3.070416e+00    2.924997e+06    0.000000e+00    9.776827e+04   -1.058409e+02   -9.030681e+00    2.093675e-01   -2.661337e-02
   1.850414e-04    2.899145e+06    3.097175e+00    2.899141e+06    0.000000e+00    9.719095e+04   -1.055287e+02   -9.085806e+00    2.093662e-01   -2.661257e-02
   1.861396e-04    2.873514e+06    1.013812e-01    2.873514e+06    0.000000e+00    9.661703e+04   -1.052173e+02   -7.163891e-01    2.093649e-01   -2.661177e-02
   1.872443e-04    2.848116e+06    3.099831e+00    2.848113e+06    0.000000e+00    9.604650e+04   -1.049070e+02   -9.091250e+00    2.093636e-01   -2.661097e-02
   1.883556e-04    2.822939e+06    2.887388e+00    2.822937e+06    0.000000e+00    9.547934e+04   -1.045975e+02   -8.647134e+00    2.093623e-01   -2.661016e-02
   1.894735e-04    2.797983e+06    4.378038e-01    2.797982e+06    0.000000e+00    9.491552e+04   -1.042889e+02   -2.209415e+00    2.093610e-01   -2.660935e-02
   1.905980e-04    2.773252e+06    3.113956e+00    2.773249e+06    0.000000e+00    9.435503e+04   -1.039813e+02   -9.120529e+00    2.093597e-01   -2.660853e-02
   1.917292e-04    2.748737e+06    2.660592e+00    2.748734e+06    0.000000e+00    9.379785e+04   -1.036745e+02   -8.160765e+00    2.093584e-01   -2.660770e-02
   1.928671e-04    2.724436e+06    7.444122e-01    2.724435e+06    0.000000e+00    9.324395e+04   -1.033686e+02   -3.268838e+00    2.093570e-01   -2.660687e-02
   1.940117e-04    2.700355e+06    3.105713e+00    2.700352e+06    0.000000e+00    9.269332e+04   -1.030637e+02   -9.103319e+00    2.093557e-01   -2.660604e-02
   1.951632e-04    2.676483e+06    2.423042e+00    2.676481e+06    0.000000e+00    9.214594e+04   -1.027597e+02   -7.637620e+00    2.093543e-01   -2.660520e-02
   1.963215e-04    2.652822e+06    1.014840e+00    2.652821e+06    0.000000e+00    9.160179e+04   -1.024565e+02   -4.095106e+00    2.093529e-01   -2.660436e-02
   1.974866e-04    2.629373e+06    3.075745e+00    2.629370e+06    0.000000e+00    9.106085e+04   -1.021543e+02   -9.041698e+00    2.093516e-01   -2.660351e-02
   1.986587e-04    2.606129e+06    2.186675e+00    2.606126e+06    0.000000e+00    9.052311e+04   -1.018529e+02   -7.101241e+00    2.093502e-01   -2.660266e-02
   1.998377e-04    2.583089e+06    1.243242e+00    2.583088e+06    0.000000e+00    8.998853e+04   -1.015524e+02   -4.741807e+00    2.093488e-01   -2.660180e-02
   2.010238e-04    2.560257e+06    3.033736e+00    2.560253e+06    0.000000e+00    8.945711e+04   -1.012529e+02   -8.954317e+00    2.093474e-01   -2.660093e-02
   2.022168e-04    2.537623e+06    1.936530e+00    2.537621e+06    0.000000e+00    8.892883e+04   -1.009542e+02   -6.513091e+00    2.093460e-01   -2.660006e-02
   2.034170e-04    2.515189e+06    1.452898e+00    2.515188e+06    0.000000e+00    8.840366e+04   -1.006563e+02   -5.303806e+00    2.093446e-01   -2.659919e-02
   2.046242e-04    2.492956e+06    2.963607e+00    2.492953e+06    0.000000e+00    8.788159e+04   -1.003594e+02   -8.807807e+00    2.093432e-01   -2.659831e-02
