# All units in Hartree [AU] if not specified
# Convergence: Err(φ)=4.133e-11, Err(n_e)=9.814e-11, Err(IET)=2.066e-03, Q_net=2.437e-07
# {"name":"Ar", "Z":18, "Zstar":0.3938595532861804, "A":39.948,  "μ[AU]": -7.0535133799e-03, "Te[AU]": 9.184e-04, "Ti[AU]": 9.184e-04, "rs[AU]": 1.372e+01 }
   r[AU]           n[AU]           nf[AU]          nb[AU]          n_ion[AU]       φtot[AU]        δVxc/δρ[Au]     U_ei[AU]        U_ii[AU]        g_ii            
   1.000000e-04    7.298703e+06    9.635182e+00    7.298693e+06    0.000000e+00    1.799152e+05   -1.434897e+02   -2.026623e+01    6.115151e+00   8.247402e-156
   1.005935e-04    7.234198e+06    7.058385e+00    7.234191e+06    0.000000e+00    1.788532e+05   -1.430663e+02   -1.636392e+01    6.115131e+00   8.247271e-156
   1.011905e-04    7.170270e+06    1.116744e+01    7.170259e+06    0.000000e+00    1.777975e+05   -1.426443e+02   -2.242538e+01    6.115112e+00   8.247139e-156
   1.017911e-04    7.106894e+06    2.598560e+00    7.106892e+06    0.000000e+00    1.767480e+05   -1.422233e+02   -8.210390e+00    6.115092e+00   8.247006e-156
   1.023952e-04    7.044096e+06    1.118471e+01    7.044085e+06    0.000000e+00    1.757047e+05   -1.418038e+02   -2.244933e+01    6.115072e+00   8.246873e-156
   1.030029e-04    6.981838e+06    5.833674e+00    6.981832e+06    0.000000e+00    1.746676e+05   -1.413853e+02   -1.435179e+01    6.115052e+00   8.246739e-156
   1.036142e-04    6.920140e+06    9.763668e+00    6.920130e+06    0.000000e+00    1.736366e+05   -1.409682e+02   -2.045099e+01    6.115032e+00   8.246604e-156
   1.042292e-04    6.858982e+06    8.901037e+00    6.858973e+06    0.000000e+00    1.726116e+05   -1.405523e+02   -1.919230e+01    6.115012e+00   8.246468e-156
   1.048478e-04    6.798364e+06    6.978376e+00    6.798357e+06    0.000000e+00    1.715927e+05   -1.401376e+02   -1.623524e+01    6.114992e+00   8.246332e-156
   1.054700e-04    6.738286e+06    1.046506e+01    6.738276e+06    0.000000e+00    1.705798e+05   -1.397241e+02   -2.144764e+01    6.114971e+00   8.246194e-156
   1.060960e-04    6.678729e+06    2.900343e+00    6.678726e+06    0.000000e+00    1.695729e+05   -1.393118e+02   -8.858855e+00    6.114951e+00   8.246056e-156
   1.067257e-04    6.619712e+06    1.060048e+01    6.619702e+06    0.000000e+00    1.685720e+05   -1.389008e+02   -2.163872e+01    6.114930e+00   8.245917e-156
   1.073591e-04    6.561205e+06    5.211852e+00    6.561199e+06    0.000000e+00    1.675769e+05   -1.384910e+02   -1.327937e+01    6.114909e+00   8.245778e-156
   1.079962e-04    6.503223e+06    9.379477e+00    6.503214e+06    0.000000e+00    1.665877e+05   -1.380824e+02   -1.989546e+01    6.114889e+00   8.245637e-156
   1.086372e-04    6.445749e+06    8.214714e+00    6.445741e+06    0.000000e+00    1.656043e+05   -1.376750e+02   -1.816305e+01    6.114867e+00   8.245495e-156
   1.092819e-04    6.388782e+06    6.871784e+00    6.388775e+06    0.000000e+00    1.646268e+05   -1.372688e+02   -1.606507e+01    6.114846e+00   8.245353e-156
   1.099305e-04    6.332323e+06    9.800093e+00    6.332313e+06    0.000000e+00    1.636550e+05   -1.368638e+02   -2.050292e+01    6.114825e+00   8.245210e-156
   1.105830e-04    6.276353e+06    3.144719e+00    6.276350e+06    0.000000e+00    1.626890e+05   -1.364599e+02   -9.368800e+00    6.114804e+00   8.245066e-156
   1.112393e-04    6.220892e+06    1.003834e+01    6.220882e+06    0.000000e+00    1.617286e+05   -1.360574e+02   -2.084443e+01    6.114782e+00   8.244921e-156
   1.118995e-04    6.165908e+06    4.639983e+00    6.165903e+06    0.000000e+00    1.607739e+05   -1.356559e+02   -1.225613e+01    6.114760e+00   8.244776e-156
   1.125636e-04    6.111420e+06    8.997425e+00    6.111411e+06    0.000000e+00    1.598249e+05   -1.352557e+02   -1.933486e+01    6.114739e+00   8.244629e-156
   1.132316e-04    6.057407e+06    7.573958e+00    6.057399e+06    0.000000e+00    1.588814e+05   -1.348566e+02   -1.717694e+01    6.114717e+00   8.244482e-156
   1.139037e-04    6.003872e+06    6.742977e+00    6.003865e+06    0.000000e+00    1.579435e+05   -1.344588e+02   -1.585662e+01    6.114695e+00   8.244333e-156
   1.145797e-04    5.950814e+06    9.171419e+00    5.950804e+06    0.000000e+00    1.570112e+05   -1.340621e+02   -1.959094e+01    6.114673e+00   8.244184e-156
   1.152597e-04    5.898216e+06    3.338378e+00    5.898212e+06    0.000000e+00    1.560843e+05   -1.336665e+02   -9.763940e+00    6.114650e+00   8.244034e-156
   1.159437e-04    5.846095e+06    9.498599e+00    5.846085e+06    0.000000e+00    1.551629e+05   -1.332722e+02   -2.006779e+01    6.114628e+00   8.243883e-156
   1.166319e-04    5.794422e+06    4.115098e+00    5.794418e+06    0.000000e+00    1.542470e+05   -1.328789e+02   -1.128147e+01    6.114605e+00   8.243731e-156
   1.173241e-04    5.743217e+06    8.619474e+00    5.743208e+06    0.000000e+00    1.533364e+05   -1.324869e+02   -1.877324e+01    6.114583e+00   8.243578e-156
   1.180204e-04    5.692457e+06    6.976557e+00    5.692450e+06    0.000000e+00    1.524313e+05   -1.320960e+02   -1.623229e+01    6.114560e+00   8.243425e-156
   1.187208e-04    5.642147e+06    6.595840e+00    5.642141e+06    0.000000e+00    1.515314e+05   -1.317063e+02   -1.561795e+01    6.114537e+00   8.243270e-156
   1.194254e-04    5.592285e+06    8.577864e+00    5.592276e+06    0.000000e+00    1.506369e+05   -1.313177e+02   -1.871122e+01    6.114514e+00   8.243115e-156
   1.201342e-04    5.542855e+06    3.487364e+00    5.542852e+06    0.000000e+00    1.497477e+05   -1.309303e+02   -1.006304e+01    6.114490e+00   8.242958e-156
   1.208472e-04    5.493874e+06    8.981366e+00    5.493865e+06    0.000000e+00    1.488637e+05   -1.305440e+02   -1.931097e+01    6.114467e+00   8.242801e-156
   1.215644e-04    5.445314e+06    3.634351e+00    5.445310e+06    0.000000e+00    1.479849e+05   -1.301588e+02   -1.035387e+01    6.114443e+00   8.242643e-156
   1.222859e-04    5.397193e+06    8.247294e+00    5.397184e+06    0.000000e+00    1.471113e+05   -1.297748e+02   -1.821272e+01    6.114420e+00   8.242484e-156
   1.230117e-04    5.349490e+06    6.420350e+00    5.349484e+06    0.000000e+00    1.462428e+05   -1.293919e+02   -1.533093e+01    6.114396e+00   8.242324e-156
   1.237417e-04    5.302212e+06    6.433822e+00    5.302205e+06    0.000000e+00    1.453795e+05   -1.290102e+02   -1.535313e+01    6.114372e+00   8.242162e-156
   1.244761e-04    5.255352e+06    8.018209e+00    5.255344e+06    0.000000e+00    1.445213e+05   -1.286296e+02   -1.786353e+01    6.114348e+00   8.242000e-156
   1.252149e-04    5.208901e+06    3.597125e+00    5.208897e+06    0.000000e+00    1.436681e+05   -1.282501e+02   -1.028085e+01    6.114324e+00   8.241837e-156
   1.259580e-04    5.162869e+06    8.486621e+00    5.162860e+06    0.000000e+00    1.428200e+05   -1.278717e+02   -1.857417e+01    6.114299e+00   8.241673e-156
   1.267056e-04    5.117234e+06    3.195021e+00    5.117231e+06    0.000000e+00    1.419769e+05   -1.274944e+02   -9.471819e+00    6.114275e+00   8.241509e-156
   1.274576e-04    5.072012e+06    7.882287e+00    5.072004e+06    0.000000e+00    1.411387e+05   -1.271183e+02   -1.765406e+01    6.114250e+00   8.241343e-156
   1.282140e-04    5.027183e+06    5.903230e+00    5.027177e+06    0.000000e+00    1.403055e+05   -1.267433e+02   -1.446958e+01    6.114225e+00   8.241176e-156
   1.289750e-04    4.982752e+06    6.259975e+00    4.982746e+06    0.000000e+00    1.394772e+05   -1.263693e+02   -1.506633e+01    6.114200e+00   8.241008e-156
   1.297404e-04    4.938715e+06    7.491210e+00    4.938708e+06    0.000000e+00    1.386538e+05   -1.259965e+02   -1.704759e+01    6.114175e+00   8.240839e-156
   1.305104e-04    4.895062e+06    3.672570e+00    4.895058e+06    0.000000e+00    1.378353e+05   -1.256248e+02   -1.042944e+01    6.114150e+00   8.240669e-156
   1.312850e-04    4.851803e+06    8.014215e+00    4.851795e+06    0.000000e+00    1.370216e+05   -1.252542e+02   -1.785741e+01    6.114125e+00   8.240498e-156
   1.320642e-04    4.808916e+06    2.794503e+00    4.808913e+06    0.000000e+00    1.362126e+05   -1.248846e+02   -8.634085e+00    6.114099e+00   8.240326e-156
   1.328480e-04    4.766419e+06    7.525623e+00    4.766411e+06    0.000000e+00    1.354085e+05   -1.245162e+02   -1.710156e+01    6.114073e+00   8.240153e-156
   1.336364e-04    4.724290e+06    5.423146e+00    4.724284e+06    0.000000e+00    1.346091e+05   -1.241488e+02   -1.364768e+01    6.114047e+00   8.239979e-156
   1.344295e-04    4.682536e+06    6.076994e+00    4.682530e+06    0.000000e+00    1.338144e+05   -1.237825e+02   -1.476166e+01    6.114021e+00   8.239805e-156
   1.352274e-04    4.641151e+06    6.995604e+00    4.641144e+06    0.000000e+00    1.330244e+05   -1.234174e+02   -1.626307e+01    6.113995e+00   8.239629e-156
   1.360299e-04    4.600128e+06    3.718115e+00    4.600124e+06    0.000000e+00    1.322391e+05   -1.230532e+02   -1.051846e+01    6.113969e+00   8.239451e-156
   1.368372e-04    4.559474e+06    7.563891e+00    4.559467e+06    0.000000e+00    1.314584e+05   -1.226902e+02   -1.716128e+01    6.113942e+00   8.239273e-156
   1.376494e-04    4.519171e+06    2.430314e+00    4.519168e+06    0.000000e+00    1.306823e+05   -1.223282e+02   -7.838462e+00    6.113916e+00   8.239094e-156
   1.384663e-04    4.479233e+06    7.178259e+00    4.479226e+06    0.000000e+00    1.299108e+05   -1.219674e+02   -1.655398e+01    6.113889e+00   8.238914e-156
   1.392881e-04    4.439642e+06    4.978109e+00    4.439637e+06    0.000000e+00    1.291438e+05   -1.216075e+02   -1.286553e+01    6.113862e+00   8.238733e-156
   1.401148e-04    4.400403e+06    5.887248e+00    4.400397e+06    0.000000e+00    1.283814e+05   -1.212487e+02   -1.444264e+01    6.113835e+00   8.238550e-156
   1.409463e-04    4.361511e+06    6.530116e+00    4.361505e+06    0.000000e+00    1.276234e+05   -1.208910e+02   -1.551046e+01    6.113808e+00   8.238367e-156
   1.417828e-04    4.322959e+06    3.737729e+00    4.322956e+06    0.000000e+00    1.268700e+05   -1.205344e+02   -1.055646e+01    6.113780e+00   8.238182e-156
   1.426243e-04    4.284754e+06    7.135299e+00    4.284747e+06    0.000000e+00    1.261210e+05   -1.201788e+02   -1.648624e+01    6.113753e+00   8.237997e-156
   1.434708e-04    4.246878e+06    2.100084e+00    4.246876e+06    0.000000e+00    1.253764e+05   -1.198242e+02   -7.084700e+00    6.113725e+00   8.237810e-156
   1.443223e-04    4.209347e+06    6.840967e+00    4.209340e+06    0.000000e+00    1.246361e+05   -1.194707e+02   -1.601540e+01    6.113697e+00   8.237622e-156
   1.451788e-04    4.172140e+06    4.566194e+00    4.172136e+06    0.000000e+00    1.239003e+05   -1.191182e+02   -1.212173e+01    6.113669e+00   8.237433e-156
   1.460404e-04    4.135265e+06    5.692814e+00    4.135260e+06    0.000000e+00    1.231688e+05   -1.187668e+02   -1.411234e+01    6.113640e+00   8.237243e-156
   1.469072e-04    4.098716e+06    6.093471e+00    4.098710e+06    0.000000e+00    1.224416e+05   -1.184164e+02   -1.478914e+01    6.113612e+00   8.237052e-156
   1.477791e-04    4.062487e+06    3.734970e+00    4.062483e+06    0.000000e+00    1.217187e+05   -1.180671e+02   -1.055113e+01    6.113583e+00   8.236860e-156
   1.486561e-04    4.026583e+06    6.728012e+00    4.026576e+06    0.000000e+00    1.210001e+05   -1.177188e+02   -1.583258e+01    6.113555e+00   8.236666e-156
   1.495384e-04    3.990988e+06    1.801555e+00    3.990986e+06    0.000000e+00    1.202857e+05   -1.173714e+02   -6.370660e+00    6.113526e+00   8.236472e-156
   1.504259e-04    3.955718e+06    6.514350e+00    3.955711e+06    0.000000e+00    1.195755e+05   -1.170252e+02   -1.548487e+01    6.113497e+00   8.236276e-156
   1.513187e-04    3.920752e+06    4.185539e+00    3.920748e+06    0.000000e+00    1.188696e+05   -1.166799e+02   -1.141499e+01    6.113467e+00   8.236079e-156
   1.522167e-04    3.886099e+06    5.495505e+00    3.886093e+06    0.000000e+00    1.181677e+05   -1.163357e+02   -1.377338e+01    6.113438e+00   8.235881e-156
   1.531201e-04    3.851751e+06    5.684401e+00    3.851745e+06    0.000000e+00    1.174701e+05   -1.159925e+02   -1.409795e+01    6.113408e+00   8.235682e-156
   1.540289e-04    3.817704e+06    3.713023e+00    3.817700e+06    0.000000e+00    1.167765e+05   -1.156503e+02   -1.050857e+01    6.113378e+00   8.235482e-156
   1.549430e-04    3.783962e+06    6.341536e+00    3.783956e+06    0.000000e+00    1.160870e+05   -1.153092e+02   -1.520053e+01    6.113348e+00   8.235280e-156
   1.558626e-04    3.750512e+06    1.532583e+00    3.750510e+06    0.000000e+00    1.154016e+05   -1.149689e+02   -5.695171e+00    6.113318e+00   8.235077e-156
   1.567877e-04    3.717366e+06    6.198868e+00    3.717360e+06    0.000000e+00    1.147203e+05   -1.146298e+02   -1.496461e+01    6.113288e+00   8.234873e-156
   1.577182e-04    3.684506e+06    3.834350e+00    3.684503e+06    0.000000e+00    1.140429e+05   -1.142916e+02   -1.074454e+01    6.113257e+00   8.234668e-156
   1.586542e-04    3.651941e+06    5.296897e+00    3.651936e+06    0.000000e+00    1.133696e+05   -1.139544e+02   -1.342805e+01    6.113227e+00   8.234462e-156
   1.595958e-04    3.619662e+06    5.301647e+00    3.619656e+06    0.000000e+00    1.127002e+05   -1.136183e+02   -1.343641e+01    6.113196e+00   8.234254e-156
   1.605430e-04    3.587666e+06    3.674737e+00    3.587662e+06    0.000000e+00    1.120348e+05   -1.132830e+02   -1.043370e+01    6.113165e+00   8.234045e-156
   1.614958e-04    3.555957e+06    5.975323e+00    3.555951e+06    0.000000e+00    1.113733e+05   -1.129489e+02   -1.459037e+01    6.113133e+00   8.233835e-156
   1.624543e-04    3.524521e+06    1.370152e+00    3.524520e+06    0.000000e+00    1.107157e+05   -1.126156e+02   -5.269602e+00    6.113102e+00   8.233624e-156
   1.634185e-04    3.493372e+06    5.894849e+00    3.493366e+06    0.000000e+00    1.100620e+05   -1.122834e+02   -1.445547e+01    6.113070e+00   8.233411e-156
   1.643883e-04    3.462492e+06    3.510899e+00    3.462488e+06    0.000000e+00    1.094121e+05   -1.119522e+02   -1.010958e+01    6.113039e+00   8.233197e-156
   1.653640e-04    3.431888e+06    5.098351e+00    3.431883e+06    0.000000e+00    1.087661e+05   -1.116219e+02   -1.307881e+01    6.113007e+00   8.232982e-156
   1.663454e-04    3.401553e+06    4.943966e+00    3.401548e+06    0.000000e+00    1.081239e+05   -1.112926e+02   -1.280439e+01    6.112974e+00   8.232766e-156
   1.673327e-04    3.371485e+06    3.622651e+00    3.371481e+06    0.000000e+00    1.074855e+05   -1.109643e+02   -1.033084e+01    6.112942e+00   8.232548e-156
   1.683258e-04    3.341686e+06    5.628784e+00    3.341680e+06    0.000000e+00    1.068508e+05   -1.106369e+02   -1.400228e+01    6.112909e+00   8.232329e-156
   1.693248e-04    3.312144e+06    1.503306e+00    3.312142e+06    0.000000e+00    1.062199e+05   -1.103105e+02   -5.619540e+00    6.112877e+00   8.232109e-156
   1.703297e-04    3.282871e+06    5.602509e+00    3.282866e+06    0.000000e+00    1.055927e+05   -1.099851e+02   -1.395704e+01    6.112844e+00   8.231887e-156
   1.713406e-04    3.253851e+06    3.213525e+00    3.253847e+06    0.000000e+00    1.049693e+05   -1.096606e+02   -9.509714e+00    6.112811e+00   8.231664e-156
   1.723575e-04    3.225091e+06    4.901035e+00    3.225086e+06    0.000000e+00    1.043494e+05   -1.093371e+02   -1.272810e+01    6.112777e+00   8.231440e-156
   1.733804e-04    3.196583e+06    4.610138e+00    3.196578e+06    0.000000e+00    1.037333e+05   -1.090146e+02   -1.220203e+01    6.112744e+00   8.231215e-156
   1.744094e-04    3.168326e+06    3.559027e+00    3.168323e+06    0.000000e+00    1.031208e+05   -1.086929e+02   -1.020557e+01    6.112710e+00   8.230988e-156
   1.754445e-04    3.140322e+06    5.301291e+00    3.140317e+06    0.000000e+00    1.025119e+05   -1.083723e+02   -1.343578e+01    6.112676e+00   8.230760e-156
   1.764858e-04    3.112560e+06    1.609962e+00    3.112558e+06    0.000000e+00    1.019066e+05   -1.080526e+02   -5.892832e+00    6.112642e+00   8.230530e-156
   1.775332e-04    3.085050e+06    5.321963e+00    3.085045e+06    0.000000e+00    1.013048e+05   -1.077338e+02   -1.347208e+01    6.112607e+00   8.230299e-156
   1.785869e-04    3.057778e+06    2.940635e+00    3.057775e+06    0.000000e+00    1.007066e+05   -1.074160e+02   -8.943851e+00    6.112573e+00   8.230067e-156
   1.796468e-04    3.030750e+06    4.705945e+00    3.030746e+06    0.000000e+00    1.001120e+05   -1.070991e+02   -1.237646e+01    6.112538e+00   8.229833e-156
   1.807130e-04    3.003960e+06    4.298965e+00    3.003955e+06    0.000000e+00    9.952084e+04   -1.067832e+02   -1.162765e+01    6.112503e+00   8.229598e-156
   1.817855e-04    2.977405e+06    3.485873e+00    2.977402e+06    0.000000e+00    9.893318e+04   -1.064681e+02   -1.006008e+01    6.112468e+00   8.229362e-156
   1.828644e-04    2.951088e+06    4.992190e+00    2.951083e+06    0.000000e+00    9.834898e+04   -1.061541e+02   -1.289078e+01    6.112432e+00   8.229124e-156
   1.839497e-04    2.924998e+06    1.693264e+00    2.924996e+06    0.000000e+00    9.776824e+04   -1.058409e+02   -6.102744e+00    6.112397e+00   8.228885e-156
   1.850414e-04    2.899145e+06    5.053239e+00    2.899140e+06    0.000000e+00    9.719091e+04   -1.055287e+02   -1.299940e+01    6.112361e+00   8.228644e-156
   1.861396e-04    2.873516e+06    2.690700e+00    2.873513e+06    0.000000e+00    9.661700e+04   -1.052173e+02   -8.410869e+00    6.112325e+00   8.228402e-156
   1.872443e-04    2.848116e+06    4.513923e+00    2.848112e+06    0.000000e+00    9.604647e+04   -1.049070e+02   -1.202519e+01    6.112289e+00   8.228158e-156
   1.883556e-04    2.822939e+06    4.009278e+00    2.822935e+06    0.000000e+00    9.547931e+04   -1.045975e+02   -1.108068e+01    6.112252e+00   8.227914e-156
   1.894735e-04    2.797985e+06    3.404968e+00    2.797981e+06    0.000000e+00    9.491549e+04   -1.042889e+02   -9.897748e+00    6.112216e+00   8.227667e-156
   1.905980e-04    2.773252e+06    4.700809e+00    2.773248e+06    0.000000e+00    9.435500e+04   -1.039813e+02   -1.236710e+01    6.112179e+00   8.227419e-156
   1.917292e-04    2.748734e+06    1.756044e+00    2.748733e+06    0.000000e+00    9.379782e+04   -1.036745e+02   -6.258643e+00    6.112142e+00   8.227170e-156
   1.928671e-04    2.724439e+06    4.796291e+00    2.724434e+06    0.000000e+00    9.324392e+04   -1.033687e+02   -1.253931e+01    6.112104e+00   8.226919e-156
   1.940117e-04    2.700353e+06    2.462260e+00    2.700351e+06    0.000000e+00    9.269329e+04   -1.030637e+02   -7.909926e+00    6.112067e+00   8.226667e-156
   1.951632e-04    2.676484e+06    4.325673e+00    2.676480e+06    0.000000e+00    9.214591e+04   -1.027597e+02   -1.167741e+01    6.112029e+00   8.226413e-156
   1.963215e-04    2.652824e+06    3.742752e+00    2.652820e+06    0.000000e+00    9.160176e+04   -1.024565e+02   -1.056616e+01    6.111991e+00   8.226158e-156
   1.974866e-04    2.629372e+06    3.314977e+00    2.629369e+06    0.000000e+00    9.106082e+04   -1.021543e+02   -9.716271e+00    6.111953e+00   8.225901e-156
   1.986587e-04    2.606130e+06    4.424984e+00    2.606125e+06    0.000000e+00    9.052308e+04   -1.018529e+02   -1.186180e+01    6.111914e+00   8.225643e-156
   1.998377e-04    2.583089e+06    1.801701e+00    2.583087e+06    0.000000e+00    8.998850e+04   -1.015524e+02   -6.371016e+00    6.111876e+00   8.225383e-156
   2.010238e-04    2.560257e+06    4.548210e+00    2.560252e+06    0.000000e+00    8.945708e+04   -1.012529e+02   -1.208864e+01    6.111837e+00   8.225122e-156
   2.022168e-04    2.537622e+06    2.251772e+00    2.537619e+06    0.000000e+00    8.892879e+04   -1.009542e+02   -7.435283e+00    6.111798e+00   8.224859e-156
   2.034170e-04    2.515191e+06    4.143774e+00    2.515187e+06    0.000000e+00    8.840363e+04   -1.006564e+02   -1.133610e+01    6.111758e+00   8.224594e-156
   2.046242e-04    2.492955e+06    3.487896e+00    2.492952e+06    0.000000e+00    8.788156e+04   -1.003594e+02   -1.006409e+01    6.111719e+00   8.224328e-156
