# All units in Hartree [AU] if not specified
# Convergence: Err(φ)=4.152e-11, Err(n_e)=9.423e-11, Err(IET)=9.898e-13, Q_net=-3.108e-07
# {"name":"Ar", "Z":18, "Zstar":0.20300224201056238, "A":39.948,  "μ[AU]": -1.9866670526e-02, "Te[AU]": 1.062e-03, "Ti[AU]": 1.062e-03, "rs[AU]": 1.372e+01 }
   r[AU]           n[AU]           nf[AU]          nb[AU]          n_ion[AU]       φtot[AU]        δVxc/δρ[Au]     U_ei[AU]        U_ii[AU]        g_ii            
   1.000000e-04    7.298704e+06    1.084277e+01    7.298694e+06    0.000000e+00    1.799152e+05   -1.434897e+02   -2.187370e+01    1.148533e+00    7.222222e-25
   1.005935e-04    7.234194e+06    2.551658e+00    7.234192e+06    0.000000e+00    1.788532e+05   -1.430663e+02   -8.005060e+00    1.148527e+00    7.222107e-25
   1.011905e-04    7.170270e+06    1.025678e+01    7.170260e+06    0.000000e+00    1.777975e+05   -1.426443e+02   -2.105224e+01    1.148522e+00    7.221992e-25
   1.017911e-04    7.106899e+06    6.942714e+00    7.106893e+06    0.000000e+00    1.767480e+05   -1.422234e+02   -1.607606e+01    1.148517e+00    7.221876e-25
   1.023952e-04    7.044093e+06    7.974466e+00    7.044085e+06    0.000000e+00    1.757047e+05   -1.418037e+02   -1.769376e+01    1.148511e+00    7.221759e-25
   1.030029e-04    6.981843e+06    9.485619e+00    6.981833e+06    0.000000e+00    1.746676e+05   -1.413854e+02   -1.994667e+01    1.148506e+00    7.221641e-25
   1.036142e-04    6.920135e+06    4.083624e+00    6.920131e+06    0.000000e+00    1.736366e+05   -1.409682e+02   -1.111966e+01    1.148500e+00    7.221523e-25
   1.042292e-04    6.858984e+06    1.027162e+01    6.858974e+06    0.000000e+00    1.726116e+05   -1.405523e+02   -2.107329e+01    1.148495e+00    7.221404e-25
   1.048478e-04    6.798361e+06    3.411307e+00    6.798357e+06    0.000000e+00    1.715927e+05   -1.401375e+02   -9.807873e+00    1.148489e+00    7.221285e-25
   1.054700e-04    6.738286e+06    9.388852e+00    6.738276e+06    0.000000e+00    1.705798e+05   -1.397241e+02   -1.980659e+01    1.148483e+00    7.221165e-25
   1.060960e-04    6.678733e+06    7.194208e+00    6.678726e+06    0.000000e+00    1.695729e+05   -1.393119e+02   -1.647658e+01    1.148478e+00    7.221044e-25
   1.067257e-04    6.619709e+06    6.922472e+00    6.619702e+06    0.000000e+00    1.685720e+05   -1.389008e+02   -1.604379e+01    1.148472e+00    7.220922e-25
   1.073591e-04    6.561209e+06    9.250940e+00    6.561200e+06    0.000000e+00    1.675769e+05   -1.384910e+02   -1.960439e+01    1.148466e+00    7.220800e-25
   1.079962e-04    6.503217e+06    2.954698e+00    6.503214e+06    0.000000e+00    1.665877e+05   -1.380824e+02   -8.870993e+00    1.148461e+00    7.220676e-25
   1.086372e-04    6.445751e+06    9.666982e+00    6.445741e+06    0.000000e+00    1.656044e+05   -1.376750e+02   -2.020965e+01    1.148455e+00    7.220553e-25
   1.092819e-04    6.388780e+06    4.099569e+00    6.388776e+06    0.000000e+00    1.646268e+05   -1.372688e+02   -1.114968e+01    1.148449e+00    7.220428e-25
   1.099305e-04    6.332323e+06    8.524910e+00    6.332314e+06    0.000000e+00    1.636550e+05   -1.368638e+02   -1.852932e+01    1.148443e+00    7.220303e-25
   1.105830e-04    6.276358e+06    7.331211e+00    6.276351e+06    0.000000e+00    1.626890e+05   -1.364600e+02   -1.669394e+01    1.148437e+00    7.220176e-25
   1.112393e-04    6.220888e+06    5.904483e+00    6.220882e+06    0.000000e+00    1.617286e+05   -1.360574e+02   -1.436918e+01    1.148431e+00    7.220050e-25
   1.118995e-04    6.165913e+06    8.950667e+00    6.165904e+06    0.000000e+00    1.607739e+05   -1.356560e+02   -1.916265e+01    1.148425e+00    7.219922e-25
   1.125636e-04    6.111413e+06    1.882722e+00    6.111411e+06    0.000000e+00    1.598249e+05   -1.352557e+02   -6.465446e+00    1.148419e+00    7.219794e-25
   1.132316e-04    6.057409e+06    9.038014e+00    6.057400e+06    0.000000e+00    1.588814e+05   -1.348567e+02   -1.929248e+01    1.148413e+00    7.219665e-25
   1.139037e-04    6.003871e+06    4.636944e+00    6.003866e+06    0.000000e+00    1.579435e+05   -1.344587e+02   -1.214815e+01    1.148407e+00    7.219535e-25
   1.145797e-04    5.950813e+06    7.670610e+00    5.950805e+06    0.000000e+00    1.570112e+05   -1.340621e+02   -1.722404e+01    1.148401e+00    7.219404e-25
   1.152597e-04    5.898220e+06    7.369531e+00    5.898213e+06    0.000000e+00    1.560843e+05   -1.336665e+02   -1.675407e+01    1.148395e+00    7.219273e-25
   1.159437e-04    5.846091e+06    4.923169e+00    5.846086e+06    0.000000e+00    1.551629e+05   -1.332721e+02   -1.266503e+01    1.148389e+00    7.219141e-25
   1.166319e-04    5.794427e+06    8.596437e+00    5.794419e+06    0.000000e+00    1.542470e+05   -1.328790e+02   -1.863645e+01    1.148383e+00    7.219008e-25
   1.173241e-04    5.743210e+06    1.281577e+00    5.743209e+06    0.000000e+00    1.533364e+05   -1.324869e+02   -4.928554e+00    1.148376e+00    7.218874e-25
   1.180204e-04    5.692459e+06    8.392680e+00    5.692451e+06    0.000000e+00    1.524313e+05   -1.320960e+02   -1.832952e+01    1.148370e+00    7.218739e-25
   1.187208e-04    5.642147e+06    5.041890e+00    5.642142e+06    0.000000e+00    1.515314e+05   -1.317063e+02   -1.287679e+01    1.148364e+00    7.218604e-25
   1.194254e-04    5.592284e+06    6.830728e+00    5.592277e+06    0.000000e+00    1.506369e+05   -1.313177e+02   -1.589629e+01    1.148358e+00    7.218468e-25
   1.201342e-04    5.542860e+06    7.323296e+00    5.542853e+06    0.000000e+00    1.497477e+05   -1.309303e+02   -1.668148e+01    1.148351e+00    7.218331e-25
   1.208472e-04    5.493869e+06    3.980569e+00    5.493865e+06    0.000000e+00    1.488637e+05   -1.305440e+02   -1.092301e+01    1.148345e+00    7.218193e-25
   1.215644e-04    5.445319e+06    8.198538e+00    5.445311e+06    0.000000e+00    1.479849e+05   -1.301589e+02   -1.803572e+01    1.148338e+00    7.218054e-25
   1.222859e-04    5.397187e+06    2.075570e+00    5.397185e+06    0.000000e+00    1.471113e+05   -1.297748e+02   -6.924406e+00    1.148332e+00    7.217915e-25
   1.230117e-04    5.349492e+06    7.737894e+00    5.349485e+06    0.000000e+00    1.462429e+05   -1.293920e+02   -1.732915e+01    1.148325e+00    7.217775e-25
   1.237417e-04    5.302211e+06    5.331005e+00    5.302206e+06    0.000000e+00    1.453795e+05   -1.290102e+02   -1.338536e+01    1.148319e+00    7.217634e-25
   1.244761e-04    5.255351e+06    6.009249e+00    5.255345e+06    0.000000e+00    1.445213e+05   -1.286296e+02   -1.454528e+01    1.148312e+00    7.217492e-25
   1.252149e-04    5.208905e+06    7.205112e+00    5.208898e+06    0.000000e+00    1.436681e+05   -1.282501e+02   -1.649381e+01    1.148305e+00    7.217349e-25
   1.259580e-04    5.162864e+06    3.078166e+00    5.162861e+06    0.000000e+00    1.428200e+05   -1.278717e+02   -9.128656e+00    1.148299e+00    7.217206e-25
   1.267056e-04    5.117239e+06    7.766040e+00    5.117231e+06    0.000000e+00    1.419769e+05   -1.274945e+02   -1.737284e+01    1.148292e+00    7.217061e-25
   1.274576e-04    5.072007e+06    2.722049e+00    5.072005e+06    0.000000e+00    1.411387e+05   -1.271183e+02   -8.375943e+00    1.148285e+00    7.216916e-25
   1.282140e-04    5.027185e+06    7.079624e+00    5.027177e+06    0.000000e+00    1.403055e+05   -1.267433e+02   -1.629530e+01    1.148278e+00    7.216770e-25
   1.289750e-04    4.982752e+06    5.519200e+00    4.982747e+06    0.000000e+00    1.394772e+05   -1.263693e+02   -1.371182e+01    1.148271e+00    7.216623e-25
   1.297404e-04    4.938713e+06    5.209460e+00    4.938708e+06    0.000000e+00    1.386538e+05   -1.259965e+02   -1.317267e+01    1.148264e+00    7.216475e-25
   1.305104e-04    4.895066e+06    7.026208e+00    4.895059e+06    0.000000e+00    1.378353e+05   -1.256248e+02   -1.620977e+01    1.148258e+00    7.216326e-25
   1.312850e-04    4.851798e+06    2.216962e+00    4.851795e+06    0.000000e+00    1.370216e+05   -1.252541e+02   -7.252778e+00    1.148251e+00    7.216176e-25
   1.320642e-04    4.808921e+06    7.306914e+00    4.808914e+06    0.000000e+00    1.362127e+05   -1.248846e+02   -1.665565e+01    1.148244e+00    7.216026e-25
   1.328480e-04    4.766415e+06    3.238201e+00    4.766412e+06    0.000000e+00    1.354085e+05   -1.245161e+02   -9.457908e+00    1.148236e+00    7.215875e-25
   1.336364e-04    4.724291e+06    6.422996e+00    4.724285e+06    0.000000e+00    1.346091e+05   -1.241488e+02   -1.523274e+01    1.148229e+00    7.215722e-25
   1.344295e-04    4.682536e+06    5.619850e+00    4.682530e+06    0.000000e+00    1.338144e+05   -1.237825e+02   -1.388422e+01    1.148222e+00    7.215569e-25
   1.352274e-04    4.641149e+06    4.434027e+00    4.641145e+06    0.000000e+00    1.330244e+05   -1.234173e+02   -1.177602e+01    1.148215e+00    7.215415e-25
   1.360299e-04    4.600131e+06    6.796562e+00    4.600125e+06    0.000000e+00    1.322391e+05   -1.230533e+02   -1.584085e+01    1.148208e+00    7.215260e-25
   1.368372e-04    4.559469e+06    1.397537e+00    4.559467e+06    0.000000e+00    1.314584e+05   -1.226902e+02   -5.239867e+00    1.148200e+00    7.215104e-25
   1.376494e-04    4.519176e+06    6.828145e+00    4.519169e+06    0.000000e+00    1.306823e+05   -1.223282e+02   -1.589211e+01    1.148193e+00    7.214947e-25
   1.384663e-04    4.479230e+06    3.639525e+00    4.479227e+06    0.000000e+00    1.299108e+05   -1.219673e+02   -1.026157e+01    1.148186e+00    7.214789e-25
   1.392881e-04    4.439643e+06    5.772379e+00    4.439637e+06    0.000000e+00    1.291438e+05   -1.216075e+02   -1.414489e+01    1.148178e+00    7.214630e-25
   1.401148e-04    4.400404e+06    5.644935e+00    4.400398e+06    0.000000e+00    1.283814e+05   -1.212487e+02   -1.392758e+01    1.148171e+00    7.214471e-25
   1.409463e-04    4.361509e+06    3.685070e+00    4.361505e+06    0.000000e+00    1.276235e+05   -1.208910e+02   -1.035145e+01    1.148163e+00    7.214310e-25
   1.417828e-04    4.322963e+06    6.525026e+00    4.322956e+06    0.000000e+00    1.268700e+05   -1.205344e+02   -1.539974e+01    1.148156e+00    7.214149e-25
   1.426243e-04    4.284749e+06    1.169541e+00    4.284748e+06    0.000000e+00    1.261210e+05   -1.201787e+02   -4.619420e+00    1.148148e+00    7.213986e-25
   1.434708e-04    4.246883e+06    6.335828e+00    4.246877e+06    0.000000e+00    1.253764e+05   -1.198242e+02   -1.508874e+01    1.148141e+00    7.213823e-25
   1.443223e-04    4.209345e+06    3.939984e+00    4.209341e+06    0.000000e+00    1.246362e+05   -1.194707e+02   -1.084573e+01    1.148133e+00    7.213658e-25
   1.451788e-04    4.172141e+06    5.131469e+00    4.172136e+06    0.000000e+00    1.239003e+05   -1.191182e+02   -1.303489e+01    1.148125e+00    7.213493e-25
   1.460404e-04    4.135266e+06    5.605171e+00    4.135260e+06    0.000000e+00    1.231688e+05   -1.187668e+02   -1.385910e+01    1.148117e+00    7.213326e-25
   1.469072e-04    4.098713e+06    2.964225e+00    4.098710e+06    0.000000e+00    1.224416e+05   -1.184164e+02   -8.891032e+00    1.148110e+00    7.213159e-25
   1.477791e-04    4.062490e+06    6.219432e+00    4.062483e+06    0.000000e+00    1.217187e+05   -1.180671e+02   -1.489640e+01    1.148102e+00    7.212990e-25
   1.486561e-04    4.026578e+06    1.761847e+00    4.026576e+06    0.000000e+00    1.210001e+05   -1.177187e+02   -6.170389e+00    1.148094e+00    7.212821e-25
   1.495384e-04    3.990993e+06    5.835261e+00    3.990987e+06    0.000000e+00    1.202857e+05   -1.173715e+02   -1.425193e+01    1.148086e+00    7.212651e-25
   1.504259e-04    3.955716e+06    4.152141e+00    3.955712e+06    0.000000e+00    1.195755e+05   -1.170252e+02   -1.124942e+01    1.148078e+00    7.212479e-25
   1.513187e-04    3.920753e+06    4.503364e+00    3.920748e+06    0.000000e+00    1.188696e+05   -1.166800e+02   -1.190342e+01    1.148070e+00    7.212307e-25
   1.522167e-04    3.886099e+06    5.510123e+00    3.886094e+06    0.000000e+00    1.181677e+05   -1.163357e+02   -1.369614e+01    1.148062e+00    7.212133e-25
   1.531201e-04    3.851748e+06    2.272710e+00    3.851745e+06    0.000000e+00    1.174701e+05   -1.159925e+02   -7.380273e+00    1.148054e+00    7.211959e-25
   1.540289e-04    3.817706e+06    5.886694e+00    3.817701e+06    0.000000e+00    1.167765e+05   -1.156503e+02   -1.433919e+01    1.148045e+00    7.211783e-25
   1.549430e-04    3.783959e+06    2.242107e+00    3.783957e+06    0.000000e+00    1.160870e+05   -1.153091e+02   -7.310684e+00    1.148037e+00    7.211607e-25
   1.558626e-04    3.750516e+06    5.331029e+00    3.750511e+06    0.000000e+00    1.154016e+05   -1.149690e+02   -1.338540e+01    1.148029e+00    7.211429e-25
   1.567877e-04    3.717365e+06    4.287286e+00    3.717361e+06    0.000000e+00    1.147203e+05   -1.146298e+02   -1.150324e+01    1.148021e+00    7.211251e-25
   1.577182e-04    3.684507e+06    3.890630e+00    3.684503e+06    0.000000e+00    1.140429e+05   -1.142916e+02   -1.075067e+01    1.148012e+00    7.211071e-25
   1.586542e-04    3.651941e+06    5.368320e+00    3.651936e+06    0.000000e+00    1.133696e+05   -1.139544e+02   -1.345043e+01    1.148004e+00    7.210890e-25
   1.595958e-04    3.619658e+06    1.611370e+00    3.619657e+06    0.000000e+00    1.127002e+05   -1.136182e+02   -5.793871e+00    1.147995e+00    7.210708e-25
   1.605430e-04    3.587668e+06    5.532893e+00    3.587663e+06    0.000000e+00    1.120348e+05   -1.132831e+02   -1.373544e+01    1.147987e+00    7.210525e-25
   1.614958e-04    3.555954e+06    2.623313e+00    3.555951e+06    0.000000e+00    1.113733e+05   -1.129488e+02   -8.162013e+00    1.147978e+00    7.210341e-25
   1.624543e-04    3.524525e+06    4.827075e+00    3.524520e+06    0.000000e+00    1.107157e+05   -1.126156e+02   -1.249249e+01    1.147969e+00    7.210156e-25
   1.634185e-04    3.493371e+06    4.355554e+00    3.493367e+06    0.000000e+00    1.100620e+05   -1.122834e+02   -1.163023e+01    1.147961e+00    7.209970e-25
   1.643883e-04    3.462492e+06    3.295363e+00    3.462489e+06    0.000000e+00    1.094122e+05   -1.119522e+02   -9.574019e+00    1.147952e+00    7.209783e-25
   1.653640e-04    3.431889e+06    5.187347e+00    3.431884e+06    0.000000e+00    1.087661e+05   -1.116219e+02   -1.313382e+01    1.147943e+00    7.209595e-25
   1.663454e-04    3.401550e+06    9.807297e-01    3.401549e+06    0.000000e+00    1.081239e+05   -1.112926e+02   -4.076872e+00    1.147934e+00    7.209405e-25
   1.673327e-04    3.371487e+06    5.163366e+00    3.371482e+06    0.000000e+00    1.074855e+05   -1.109643e+02   -1.309150e+01    1.147925e+00    7.209214e-25
   1.683258e-04    3.341684e+06    2.917188e+00    3.341681e+06    0.000000e+00    1.068508e+05   -1.106369e+02   -8.791629e+00    1.147916e+00    7.209023e-25
   1.693248e-04    3.312147e+06    4.324118e+00    3.312143e+06    0.000000e+00    1.062199e+05   -1.103105e+02   -1.157201e+01    1.147907e+00    7.208830e-25
   1.703297e-04    3.282870e+06    4.362368e+00    3.282866e+06    0.000000e+00    1.055928e+05   -1.099851e+02   -1.164279e+01    1.147898e+00    7.208636e-25
   1.713406e-04    3.253851e+06    2.715642e+00    3.253848e+06    0.000000e+00    1.049693e+05   -1.096606e+02   -8.362191e+00    1.147889e+00    7.208441e-25
   1.723575e-04    3.225091e+06    4.974423e+00    3.225086e+06    0.000000e+00    1.043495e+05   -1.093371e+02   -1.275633e+01    1.147880e+00    7.208244e-25
   1.733804e-04    3.196580e+06    1.116942e+00    3.196579e+06    0.000000e+00    1.037333e+05   -1.090145e+02   -4.471030e+00    1.147871e+00    7.208047e-25
   1.744094e-04    3.168328e+06    4.783782e+00    3.168323e+06    0.000000e+00    1.031208e+05   -1.086930e+02   -1.241447e+01    1.147862e+00    7.207848e-25
   1.754445e-04    3.140320e+06    3.139740e+00    3.140317e+06    0.000000e+00    1.025119e+05   -1.083723e+02   -9.255965e+00    1.147852e+00    7.207648e-25
   1.764858e-04    3.112562e+06    3.835055e+00    3.112559e+06    0.000000e+00    1.019066e+05   -1.080526e+02   -1.064340e+01    1.147843e+00    7.207447e-25
   1.775332e-04    3.085050e+06    4.327752e+00    3.085045e+06    0.000000e+00    1.013048e+05   -1.077338e+02   -1.157876e+01    1.147833e+00    7.207245e-25
   1.785869e-04    3.057777e+06    2.168464e+00    3.057775e+06    0.000000e+00    1.007067e+05   -1.074160e+02   -7.141174e+00    1.147824e+00    7.207042e-25
   1.796468e-04    3.030751e+06    4.737258e+00    3.030746e+06    0.000000e+00    1.001120e+05   -1.070991e+02   -1.233073e+01    1.147814e+00    7.206837e-25
   1.807130e-04    3.003957e+06    1.548440e+00    3.003956e+06    0.000000e+00    9.952085e+04   -1.067831e+02   -5.633465e+00    1.147805e+00    7.206631e-25
   1.817855e-04    2.977406e+06    4.391920e+00    2.977402e+06    0.000000e+00    9.893319e+04   -1.064682e+02   -1.169765e+01    1.147795e+00    7.206424e-25
   1.828644e-04    2.951086e+06    3.284276e+00    2.951083e+06    0.000000e+00    9.834899e+04   -1.061541e+02   -9.551659e+00    1.147785e+00    7.206216e-25
   1.839497e-04    2.925000e+06    3.344932e+00    2.924997e+06    0.000000e+00    9.776825e+04   -1.058409e+02   -9.674685e+00    1.147776e+00    7.206007e-25
   1.850414e-04    2.899145e+06    4.241998e+00    2.899141e+06    0.000000e+00    9.719093e+04   -1.055287e+02   -1.141790e+01    1.147766e+00    7.205796e-25
   1.861396e-04    2.873515e+06    1.626167e+00    2.873513e+06    0.000000e+00    9.661701e+04   -1.052173e+02   -5.831416e+00    1.147756e+00    7.205584e-25
   1.872443e-04    2.848117e+06    4.469919e+00    2.848112e+06    0.000000e+00    9.604648e+04   -1.049070e+02   -1.184222e+01    1.147746e+00    7.205371e-25
   1.883556e-04    2.822938e+06    1.899415e+00    2.822936e+06    0.000000e+00    9.547932e+04   -1.045975e+02   -6.505811e+00    1.147736e+00    7.205156e-25
   1.894735e-04    2.797986e+06    4.001035e+00    2.797982e+06    0.000000e+00    9.491550e+04   -1.042889e+02   -1.096226e+01    1.147726e+00    7.204940e-25
   1.905980e-04    2.773252e+06    3.372269e+00    2.773248e+06    0.000000e+00    9.435501e+04   -1.039812e+02   -9.729862e+00    1.147716e+00    7.204723e-25
   1.917292e-04    2.748736e+06    2.871056e+00    2.748733e+06    0.000000e+00    9.379783e+04   -1.036745e+02   -8.694526e+00    1.147705e+00    7.204505e-25
   1.928671e-04    2.724439e+06    4.128566e+00    2.724435e+06    0.000000e+00    9.324393e+04   -1.033687e+02   -1.120460e+01    1.147695e+00    7.204285e-25
   1.940117e-04    2.700352e+06    1.118199e+00    2.700351e+06    0.000000e+00    9.269330e+04   -1.030637e+02   -4.474627e+00    1.147685e+00    7.204064e-25
   1.951632e-04    2.676484e+06    4.199999e+00    2.676480e+06    0.000000e+00    9.214592e+04   -1.027597e+02   -1.133961e+01    1.147674e+00    7.203842e-25
   1.963215e-04    2.652822e+06    2.178827e+00    2.652820e+06    0.000000e+00    9.160177e+04   -1.024565e+02   -7.165130e+00    1.147664e+00    7.203619e-25
   1.974866e-04    2.629373e+06    3.613467e+00    2.629369e+06    0.000000e+00    9.106083e+04   -1.021543e+02   -1.021041e+01    1.147653e+00    7.203394e-25
   1.986587e-04    2.606129e+06    3.420011e+00    2.606126e+06    0.000000e+00    9.052309e+04   -1.018529e+02   -9.825469e+00    1.147643e+00    7.203168e-25
   1.998377e-04    2.583090e+06    2.414134e+00    2.583088e+06    0.000000e+00    8.998851e+04   -1.015524e+02   -7.699777e+00    1.147632e+00    7.202940e-25
   2.010238e-04    2.560257e+06    3.980904e+00    2.560253e+06    0.000000e+00    8.945709e+04   -1.012529e+02   -1.092364e+01    1.147622e+00    7.202711e-25
   2.022168e-04    2.537621e+06    6.997372e-01    2.537620e+06    0.000000e+00    8.892881e+04   -1.009541e+02   -3.206124e+00    1.147611e+00    7.202481e-25
   2.034170e-04    2.515191e+06    3.902468e+00    2.515187e+06    0.000000e+00    8.840364e+04   -1.006564e+02   -1.077358e+01    1.147600e+00    7.202249e-25
   2.046242e-04    2.492955e+06    2.384460e+00    2.492952e+06    0.000000e+00    8.788157e+04   -1.003594e+02   -7.633510e+00    1.147589e+00    7.202016e-25
